Sample,Channel 1,Channel 2,Channel 3,Channel 4,Channel 5,Channel 6,Channel 7,Channel 8
0,-134586,-8388608,5330481,6118789,-1057689,-7643551,464547,1033357
1,-134595,-8388608,5330256,6118451,-1057437,-7643423,464674,1033445
2,-134595,-8388608,5330068,6118141,-1057191,-7643003,464782,1033539
3,-134462,-8388608,5329848,6117846,-1056934,-7642199,464806,1033370
4,-134244,-8388608,5329592,6117516,-1056729,-7641930,464812,1033006
5,-133964,-8388608,5329329,6117222,-1056532,-7642032,464814,1032574
6,-133658,-8388608,5329121,6116935,-1056326,-7642087,464788,1032126
7,-133267,-8388608,5328921,6116608,-1056161,-7642288,464731,1031576
8,-132907,-8388608,5328759,6116325,-1055963,-7642519,464663,1031084
9,-132756,-8388608,5328549,6116058,-1055772,-7642421,464656,1030852
10,-132770,-8388608,5328359,6115836,-1055577,-7642292,464773,1030941
11,-133076,-8388608,5328263,6115623,-1055373,-7642174,464982,1031551
12,-133361,-8388608,5328133,6115455,-1055169,-7641631,465176,1032121
13,-133665,-8388608,5327960,6115269,-1054957,-7640856,465365,1032607
14,-133978,-8388608,5327744,6115054,-1054738,-7640419,465519,1033143
15,-134160,-8388608,5327572,6114877,-1054576,-7640203,465619,1033464
16,-134184,-8388608,5327385,6114749,-1054444,-7640147,465693,1033549
17,-134178,-8388608,5327172,6114597,-1054309,-7640060,465754,1033579
18,-134138,-8388608,5326964,6114428,-1054181,-7639905,465796,1033554
19,-134101,-8388608,5326735,6114231,-1054091,-7639772,465801,1033573
20,-134019,-8388608,5326535,6114091,-1053993,-7639799,465779,1033469
21,-133757,-8388608,5326324,6113969,-1053946,-7639746,465722,1033118
22,-133434,-8388608,5326110,6113844,-1053949,-7639702,465733,1032746
23,-133156,-8388608,5325936,6113739,-1053921,-7639763,465671,1032274
24,-132736,-8388608,5325749,6113629,-1053933,-7639837,465526,1031676
25,-132457,-8388608,5325613,6113543,-1053947,-7639813,465511,1031363
26,-132359,-8388608,5325568,6113504,-1053936,-7639688,465506,1031181
27,-132449,-8388608,5325440,6113415,-1053877,-7639527,465523,1031314
28,-132775,-8388608,5325311,6113399,-1053825,-7639421,465710,1031981
29,-133081,-8388608,5325223,6113409,-1053779,-7639354,465839,1032513
30,-133369,-8388608,5325112,6113427,-1053763,-7639107,465912,1032976
31,-133683,-8388608,5325009,6113419,-1053749,-7638813,465982,1033472
32,-133822,-8388608,5324865,6113413,-1053711,-7638150,465908,1033533
33,-133841,-8388608,5324689,6113401,-1053785,-7637469,465848,1033570
34,-133822,-8388608,5324611,6113386,-1053854,-7637165,465817,1033640
35,-133851,-8388608,5324566,6113394,-1053916,-7636874,465772,1033660
36,-133834,-8388608,5324495,6113382,-1054006,-7636227,465716,1033654
37,-133664,-8388608,5324433,6113389,-1054114,-7635427,465599,1033370
38,-133416,-8388608,5324360,6113381,-1054207,-7635124,465379,1032841
39,-133115,-8388608,5324238,6113314,-1054287,-7634430,465111,1032184
40,-132725,-8388608,5324119,6113245,-1054397,-7632646,464851,1031472
41,-132354,-8388608,5324026,6113216,-1054552,-7631439,464732,1031032
42,-132116,-8388608,5324033,6113186,-1054700,-7630673,464696,1030843
43,-132044,-8388608,5324069,6113228,-1054807,-7629956,464673,1030764
44,-132235,-8388608,5324093,6113257,-1054887,-7629312,464666,1031071
45,-132596,-8388608,5324142,6113304,-1054958,-7628850,464743,1031759
46,-132839,-8388608,5324159,6113339,-1055074,-7628732,464919,1032412
47,-133136,-8388608,5324223,6113363,-1055170,-7628664,465134,1033064
48,-133430,-8388608,5324296,6113398,-1055235,-7628599,465289,1033578
49,-133504,-8388608,5324346,6113379,-1055286,-7628588,465295,1033732
50,-133459,-8388608,5324426,6113372,-1055326,-7628135,465132,1033465
51,-133461,-8388608,5324351,6113305,-1055297,-7627265,464769,1032939
52,-133439,-8388608,5324169,6113223,-1055401,-7627204,464704,1032949
53,-133365,-8388608,5324204,6113188,-1055517,-7627311,464669,1032958
54,-133162,-8388608,5324273,6113098,-1055606,-7627319,464568,1032662
55,-132850,-8388608,5324302,6113022,-1055665,-7627189,464414,1032113
56,-132507,-8388608,5324304,6112923,-1055681,-7627098,464109,1031416
57,-132103,-8388608,5324283,6112806,-1055782,-7627380,463933,1030861
58,-131770,-8388608,5324321,6112734,-1055884,-7627735,463919,1030446
59,-131589,-8388608,5324475,6112700,-1055948,-7628074,464088,1030421
60,-131601,-8388608,5324630,6112668,-1055961,-7628182,464308,1030731
61,-131793,-8388608,5324864,6112644,-1055956,-7628169,464517,1031314
62,-132091,-8388608,5325037,6112603,-1055876,-7627891,464683,1031854
63,-132387,-8388608,5325153,6112542,-1055786,-7627416,464814,1032387
64,-132674,-8388608,5325233,6112481,-1055723,-7626829,464983,1032903
65,-132858,-8388608,5325313,6112398,-1055668,-7626149,465036,1033179
66,-132845,-8388608,5325366,6112276,-1055629,-7625154,465033,1033208
67,-132831,-8388608,5325428,6112134,-1055485,-7624199,465033,1033169
68,-132817,-8388608,5325427,6111993,-1055350,-7623767,465031,1033146
69,-132768,-8388608,5325444,6111821,-1055215,-7623496,465015,1033099
70,-131770,-8388608,5324321,6112734,-1055884,-7627735,463919,1030446
71,-131589,-8388608,5324475,6112700,-1055948,-7628074,464088,1030421
72,-131601,-8388608,5324630,6112668,-1055961,-7628182,464308,1030731
73,-131793,-8388608,5324864,6112644,-1055956,-7628169,464517,1031314
74,-132091,-8388608,5325037,6112603,-1055876,-7627891,464683,1031854
75,-132387,-8388608,5325153,6112542,-1055786,-7627416,464814,1032387
76,-132674,-8388608,5325233,6112481,-1055723,-7626829,464983,1032903
77,-132858,-8388608,5325313,6112398,-1055668,-7626149,465036,1033179
78,-132845,-8388608,5325366,6112276,-1055629,-7625154,465033,1033208
79,-132831,-8388608,5325428,6112134,-1055485,-7624199,465033,1033169
80,-132817,-8388608,5325427,6111993,-1055350,-7623767,465031,1033146
81,-132768,-8388608,5325444,6111821,-1055215,-7623496,465015,1033099
82,-132663,-8388608,5325481,6111658,-1055121,-7623470,465051,1033013
83,-132374,-8388608,5325500,6111444,-1054996,-7623587,465028,1032653
84,-132061,-8388608,5325478,6111181,-1054838,-7623774,465015,1032266
85,-131715,-8388608,5325471,6110910,-1054705,-7624011,465017,1031876
86,-131309,-8388608,5325421,6110629,-1054549,-7624236,464978,1031359
87,-131021,-8388608,5325412,6110383,-1054396,-7624485,464976,1031029
88,-130882,-8388608,5325481,6110171,-1054214,-7624674,465050,1030937
89,-130932,-8388608,5325557,6109992,-1053991,-7624627,465178,1031142
90,-131255,-8388608,5325593,6109831,-1053729,-7624489,465336,1031689
91,-131596,-8388608,5325549,6109650,-1053507,-7624519,465587,1032396
92,-131852,-8388608,5325567,6109513,-1053295,-7624532,465853,1032965
93,-132127,-8388608,5325590,6109329,-1053071,-7624226,466026,1033462
94,-132249,-8388608,5325489,6109059,-1052797,-7623879,466048,1033547
95,-132286,-8388608,5325355,6108799,-1052586,-7623813,466096,1033615
96,-132251,-8388608,5325300,6108574,-1052387,-7623931,466133,1033653
97,-132239,-8388608,5325161,6108314,-1052161,-7623903,466150,1033646
98,-132219,-8388608,5325038,6108031,-1051914,-7623882,466206,1033632
99,-132078,-8388608,5324911,6107763,-1051709,-7623970,466229,1033470
100,-131821,-8388608,5324770,6107527,-1051461,-7624069,466161,1033018
101,-131543,-8388608,5324577,6107259,-1051268,-7624261,466076,1032495
102,-131206,-8388608,5324427,6106977,-1051067,-7624473,465994,1031966
103,-130780,-8388608,5324281,6106733,-1050892,-7624726,465883,1031349
104,-130559,-8388608,5324169,6106527,-1050741,-7624885,465879,1031108
105,-130504,-8388608,5324092,6106351,-1050559,-7624977,465906,1031104
106,-130732,-8388608,5324033,6106190,-1050351,-7624903,466056,1031526
107,-131075,-8388608,5323928,6106023,-1050147,-7624788,466262,1032185
108,-131361,-8388608,5323802,6105924,-1049980,-7624765,466423,1032759
109,-131642,-8388608,5323679,6105826,-1049822,-7624616,466569,1033238
110,-131930,-8388608,5323551,6105701,-1049651,-7624309,466674,1033654
111,-132047,-8388608,5323371,6105601,-1049543,-7624128,466736,1033878
112,-132053,-8388608,5323153,6105476,-1049446,-7624027,466714,1033873
113,-132053,-8388608,5323010,6105369,-1049368,-7623965,466709,1033878
114,-132038,-8388608,5322857,6105267,-1049357,-7623871,466694,1033849
115,-132019,-8388608,5322687,6105201,-1049339,-7623847,466645,1033776
116,-131827,-8388608,5322500,6105113,-1049314,-7623918,466579,1033418
117,-131648,-8388608,5322325,6105055,-1049284,-7624069,466488,1033054
118,-131422,-8388608,5322153,6104954,-1049284,-7624284,466329,1032554
119,-131066,-8388608,5321963,6104893,-1049317,-7624641,466126,1031943
120,-130752,-8388608,5321771,6104794,-1049351,-7624923,465965,1031399
121,-130548,-8388608,5321624,6104723,-1049370,-7624949,465906,1031134
122,-130570,-8388608,5321476,6104645,-1049384,-7624898,465949,1031216
123,-130917,-8388608,5321346,6104639,-1049366,-7624894,466102,1031817
124,-131292,-8388608,5321224,6104649,-1049339,-7624851,466258,1032439
125,-131580,-8388608,5321099,6104670,-1049331,-7624646,466346,1032914
126,-131909,-8388608,5320989,6104686,-1049345,-7624379,466407,1033430
127,-132158,-8388608,5320856,6104670,-1049353,-7624325,466466,1033834
128,-132231,-8388608,5320731,6104663,-1049396,-7624531,466508,1033923
129,-132246,-8388608,5320583,6104667,-1049483,-7624717,466481,1033965
130,-132207,-8388608,5320437,6104650,-1049552,-7624908,466451,1033934
131,-132209,-8388608,5320295,6104631,-1049660,-7625185,466484,1034014
132,-132155,-8388608,5320157,6104609,-1049789,-7625499,466514,1033978
133,-131942,-8388608,5319999,6104563,-1049908,-7625607,466352,1033499
134,-131695,-8388608,5319847,6104476,-1050001,-7625554,466131,1032901
135,-131351,-8388608,5319696,6104411,-1050147,-7625374,465908,1032244
136,-130997,-8388608,5319473,6104364,-1050326,-7625491,465708,1031594
137,-130796,-8388608,5319335,6104312,-1050461,-7625731,465633,1031204
138,-131909,-8388608,5320989,6104686,-1049345,-7624379,466407,1033430
139,-132158,-8388608,5320856,6104670,-1049353,-7624325,466466,1033834
140,-132231,-8388608,5320731,6104663,-1049396,-7624531,466508,1033923
141,-132246,-8388608,5320583,6104667,-1049483,-7624717,466481,1033965
142,-132207,-8388608,5320437,6104650,-1049552,-7624908,466451,1033934
143,-132209,-8388608,5320295,6104631,-1049660,-7625185,466484,1034014
144,-132155,-8388608,5320157,6104609,-1049789,-7625499,466514,1033978
145,-131942,-8388608,5319999,6104563,-1049908,-7625607,466352,1033499
146,-131695,-8388608,5319847,6104476,-1050001,-7625554,466131,1032901
147,-131351,-8388608,5319696,6104411,-1050147,-7625374,465908,1032244
148,-130997,-8388608,5319473,6104364,-1050326,-7625491,465708,1031594
149,-130796,-8388608,5319335,6104312,-1050461,-7625731,465633,1031204
150,-130686,-8388608,5319260,6104299,-1050621,-7625816,465583,1031018
151,-130789,-8388608,5319202,6104294,-1050745,-7625697,465592,1031216
152,-131107,-8388608,5319184,6104316,-1050824,-7625259,465656,1031626
153,-131444,-8388608,5319023,6104317,-1050937,-7625153,465786,1032176
154,-131782,-8388608,5318923,6104323,-1051073,-7624996,466006,1032827
155,-132104,-8388608,5318875,6104332,-1051180,-7624499,466152,1033311
156,-132227,-8388608,5318770,6104314,-1051279,-7624255,466171,1033399
157,-132221,-8388608,5318638,6104306,-1051391,-7624197,466087,1033336
158,-132233,-8388608,5318515,6104276,-1051517,-7624420,466121,1033468
159,-132253,-8388608,5318465,6104251,-1051619,-7624609,466224,1033572
160,-132214,-8388608,5318383,6104200,-1051684,-7624707,466195,1033448
161,-132077,-8388608,5318181,6104077,-1051784,-7625084,466202,1033435
162,-131803,-8388608,5318094,6103946,-1051909,-7625586,466284,1033324
163,-131474,-8388608,5318086,6103857,-1051996,-7625857,466191,1032823
164,-131141,-8388608,5318088,6103741,-1052001,-7625672,465854,1031895
165,-130712,-8388608,5317885,6103528,-1052005,-7625655,465577,1031012
166,-130487,-8388608,5317792,6103404,-1052059,-7626155,465668,1030981
167,-130438,-8388608,5317856,6103312,-1052067,-7626474,465784,1031089
168,-130569,-8388608,5317971,6103221,-1051974,-7626308,465836,1031289
169,-130898,-8388608,5318069,6103105,-1051849,-7625847,465883,1031634
170,-131178,-8388608,5318031,6102953,-1051653,-7624987,465796,1031731
171,-131512,-8388608,5317923,6102804,-1051537,-7624310,465900,1032287
172,-131737,-8388608,5317871,6102714,-1051442,-7624039,466158,1032901
173,-131775,-8388608,5317919,6102528,-1051360,-7624176,466352,1033245
174,-131723,-8388608,5317988,6102354,-1051288,-7624274,466454,1033319
175,-131633,-8388608,5318054,6102179,-1051173,-7624352,466581,1033393
176,-131572,-8388608,5318071,6101999,-1051084,-7624336,466641,1033401
177,-131494,-8388608,5318104,6101794,-1050956,-7624326,466611,1033314
178,-131269,-8388608,5318114,6101604,-1050841,-7624379,466468,1032964
179,-130571,-8388608,5318185,6101229,-1050621,-7624762,466273,1032141
180,-130091,-8388608,5318189,6101021,-1050531,-7624937,466126,1031479
181,-129691,-8388608,5318106,6100813,-1050461,-7625328,466046,1031018
182,-129459,-8388608,5318172,6100582,-1050318,-7625647,466086,1030914
183,-129442,-8388608,5318274,6100329,-1050146,-7625730,466163,1031019
184,-129670,-8388608,5318351,6100105,-1049962,-7625598,466338,1031515
185,-129944,-8388608,5318439,6099894,-1049738,-7625371,466521,1032059
186,-130198,-8388608,5318454,6099682,-1049518,-7625184,466718,1032550
187,-130468,-8388608,5318508,6099474,-1049301,-7624931,466901,1033140
188,-130642,-8388608,5318513,6099288,-1049048,-7624709,467067,1033601
189,-130602,-8388608,5318479,6099074,-1048852,-7624646,467160,1033695
190,-130517,-8388608,5318462,6098821,-1048632,-7624576,467158,1033546
191,-130439,-8388608,5318393,6098594,-1048378,-7624287,467061,1033350
192,-130422,-8388608,5318285,6098396,-1048178,-7624359,467090,1033444
193,-130289,-8388608,5318223,6098156,-1047972,-7624529,467156,1033398
194,-130023,-8388608,5318168,6097898,-1047769,-7624727,467109,1032990
195,-129712,-8388608,5318061,6097661,-1047444,-7624961,467052,1032538
196,-129367,-8388608,5317916,6097336,-1047158,-7625159,466946,1031934
197,-128891,-8388608,5317784,6097028,-1046950,-7625421,466824,1031199
198,-128551,-8388608,5317674,6096773,-1046711,-7625610,466775,1030753
199,-128379,-8388608,5317538,6096527,-1046506,-7625651,466753,1030553
200,-128424,-8388608,5317453,6096292,-1046248,-7625497,466863,1030701
201,-128714,-8388608,5317364,6096138,-1046021,-7625267,467056,1031334
202,-129014,-8388608,5317242,6095998,-1045818,-7624879,467209,1031901
203,-129313,-8388608,5317110,6095845,-1045594,-7624115,467391,1032461
204,-129582,-8388608,5316982,6095714,-1045399,-7623025,467516,1032929
205,-129666,-8388608,5316806,6095571,-1045221,-7622157,467546,1033124
206,-129664,-8388608,5316619,6095400,-1045099,-7621359,467556,1033109
207,-129686,-8388608,5316472,6095257,-1044963,-7620462,467561,1033132
208,-129644,-8388608,5316314,6095148,-1044868,-7619202,467521,1033032
209,-129630,-8388608,5316109,6095001,-1044772,-7617560,467518,1032953
210,-129509,-8388608,5315888,6094858,-1044689,-7616183,467454,1032671
211,-129246,-8388608,5315674,6094708,-1044654,-7615205,467302,1032121
212,-128942,-8388608,5315428,6094569,-1044611,-7614714,467139,1031573
213,-128531,-8388608,5315252,6094417,-1044576,-7614332,466965,1030982
214,-128110,-8388608,5315084,6094279,-1044559,-7613981,466768,1030306
215,-127925,-8388608,5314939,6094198,-1044542,-7613841,466655,1030002
216,-127871,-8388608,5314827,6094171,-1044534,-7613747,466583,1029937
217,-127999,-8388608,5314779,6094164,-1044484,-7613498,466599,1030218
218,-128299,-8388608,5314739,6094181,-1044494,-7613056,466673,1030799
219,-128574,-8388608,5314714,6094203,-1044497,-7612712,466762,1031271
220,-128836,-8388608,5314641,6094226,-1044484,-7612514,466783,1031670
221,-129091,-8388608,5314507,6094283,-1044470,-7612467,466843,1032144
222,-129159,-8388608,5314389,6094318,-1044517,-7612588,466851,1032329
223,-129156,-8388608,5314288,6094362,-1044591,-7612714,466776,1032249
224,-129118,-8388608,5314168,6094370,-1044656,-7612797,466686,1032116
225,-129074,-8388608,5314063,6094365,-1044729,-7612979,466654,1032139
226,-129048,-8388608,5313972,6094413,-1044835,-7613250,466639,1032206
227,-128819,-8388608,5313898,6094455,-1044982,-7613453,466544,1031955
228,-128532,-8388608,5313804,6094428,-1045118,-7613497,466352,1031388
229,-128192,-8388608,5313671,6094423,-1045208,-7613587,466079,1030636
230,-127774,-8388608,5313494,6094433,-1045297,-7613647,465766,1029845
231,-127372,-8388608,5313367,6094430,-1045405,-7613688,465464,1029076
232,-127204,-8388608,5313264,6094459,-1045539,-7613864,465335,1028800
233,-127211,-8388608,5313231,6094549,-1045688,-7614205,465404,1029007
234,-127377,-8388608,5313286,6094624,-1045777,-7614200,465482,1029354
235,-127620,-8388608,5313248,6094713,-1045857,-7614012,465516,1029797
236,-127887,-8388608,5313189,6094788,-1045951,-7614037,465629,1030348
237,-128122,-8388608,5313161,6094851,-1046037,-7614237,465764,1030942
238,-128311,-8388608,5313108,6094931,-1046150,-7614476,465838,1031338
239,-128307,-8388608,5313073,6095006,-1046261,-7614538,465732,1031176
240,-128232,-8388608,5312931,6094997,-1046363,-7614581,465584,1030970
241,-128151,-8388608,5312874,6095029,-1046476,-7614724,465532,1030866
242,-128108,-8388608,5312788,6095056,-1046591,-7614917,465522,1030826
243,-127981,-8388608,5312760,6095054,-1046734,-7615064,465381,1030579
244,-127724,-8388608,5312643,6095001,-1046837,-7615076,465129,1029906
245,-127403,-8388608,5312485,6094999,-1046991,-7615566,465035,1029506
246,-127037,-8388608,5312405,6094959,-1047135,-7616165,464994,1029124
247,-126564,-8388608,5312348,6094901,-1047247,-7616426,464784,1028268
248,-126220,-8388608,5312266,6094880,-1047336,-7616564,464606,1027688
249,-126062,-8388608,5312238,6094883,-1047414,-7616794,464554,1027508
250,-126076,-8388608,5312272,6094885,-1047449,-7616893,464622,1027644
251,-126294,-8388608,5312359,6094905,-1047472,-7616901,464786,1028216
252,-126536,-8388608,5312366,6094939,-1047492,-7616816,464948,1028761
253,-126776,-8388608,5312389,6094878,-1047454,-7616641,465018,1029151
254,-126984,-8388608,5312364,6094806,-1047394,-7616446,465049,1029395
255,-127042,-8388608,5312231,6094728,-1047351,-7616515,465170,1029626
256,-127001,-8388608,5312161,6094616,-1047321,-7616842,465279,1029830
257,-126949,-8388608,5312201,6094524,-1047286,-7617096,465403,1030017
258,-126874,-8388608,5312256,6094431,-1047233,-7616792,465485,1029993
259,-126737,-8388608,5312241,6094271,-1047167,-7616099,465487,1029808
260,-126507,-8388608,5312228,6094093,-1047128,-7615267,465443,1029552
261,-126266,-8388608,5312192,6093925,-1047114,-7613827,465353,1029174
262,-125946,-8388608,5312169,6093788,-1047049,-7612187,465221,1028553
263,-125506,-8388608,5312138,6093576,-1046949,-7610586,464991,1027658
264,-124986,-8388608,5312051,6093408,-1046897,-7609429,464827,1026927
265,-124628,-8388608,5312088,6093319,-1046857,-7608340,464860,1026804
266,-124471,-8388608,5312245,6093399,-1046784,-7606956,464945,1026773
267,-124559,-8388608,5312418,6093432,-1046661,-7605244,465075,1027014
268,-124816,-8388608,5312568,6093374,-1046485,-7603687,465251,1027534
269,-125051,-8388608,5312659,6093267,-1046290,-7602159,465377,1028011
270,-125284,-8388608,5312696,6093109,-1046056,-7600760,465513,1028496
271,-125461,-8388608,5312662,6092909,-1045871,-7599257,465648,1028896
272,-125491,-8388608,5312635,6092691,-1045705,-7597485,465719,1029033
273,-125382,-8388608,5312603,6092498,-1045533,-7595199,465766,1029010
274,-125264,-8388608,5312529,6092339,-1045332,-7593636,465800,1028978
275,-125211,-8388608,5312511,6092098,-1045120,-7592594,465863,1029000
276,-125066,-8388608,5312493,6091870,-1044907,-7591230,465878,1028878
277,-124834,-8388608,5312419,6091643,-1044703,-7589304,465825,1028588
278,-124542,-8388608,5312318,6091363,-1044494,-7587601,465731,1028088
279,-124207,-8388608,5312176,6091103,-1044323,-7586762,465663,1027539
280,-123722,-8388608,5312124,6090867,-1044240,-7585800,465554,1026914
281,-123256,-8388608,5312081,6090650,-1044091,-7584641,465475,1026343
282,-123012,-8388608,5312031,6090526,-1043981,-7584108,465459,1026136
283,-122958,-8388608,5311974,6090411,-1043891,-7583729,465476,1026079
284,-123150,-8388608,5311923,6090226,-1043700,-7583206,465624,1026512
285,-123444,-8388608,5311874,6090089,-1043505,-7582371,465820,1027103
286,-123762,-8388608,5311739,6089883,-1043296,-7581559,465963,1027648
287,-124030,-8388608,5311588,6089644,-1043023,-7580779,466084,1028096
288,-124248,-8388608,5311399,6089434,-1042784,-7580192,466185,1028456
289,-124289,-8388608,5311214,6089233,-1042592,-7579304,466259,1028559
290,-124267,-8388608,5310998,6088999,-1042415,-7578288,466276,1028511
291,-124202,-8388608,5310769,6088769,-1042245,-7577401,466263,1028445
292,-124151,-8388608,5310558,6088614,-1042054,-7576639,466281,1028404
293,-124054,-8388608,5310345,6088441,-1041899,-7576203,466246,1028288
294,-123887,-8388608,5310124,6088269,-1041789,-7575800,466178,1027976
295,-123613,-8388608,5309913,6088118,-1041704,-7575207,466062,1027537
296,-123299,-8388608,5309681,6087942,-1041629,-7574936,465897,1026958
297,-122847,-8388608,5309454,6087773,-1041597,-7574699,465718,1026194
298,-122542,-8388608,5309283,6087649,-1041591,-7574359,465623,1025794
299,-122407,-8388608,5309131,6087536,-1041552,-7573861,465573,1025635
300,-122471,-8388608,5309015,6087481,-1041476,-7573284,465601,1025764
301,-122732,-8388608,5308944,6087449,-1041441,-7572829,465729,1026339
302,-123030,-8388608,5308898,6087421,-1041386,-7572453,465898,1026916
303,-123357,-8388608,5308751,6087359,-1041334,-7571734,465985,1027312
304,-123703,-8388608,5308604,6087331,-1041317,-7570760,466063,1027859
305,-123836,-8388608,5308450,6087329,-1041321,-7570079,466119,1028198
306,-123841,-8388608,5308293,6087299,-1041329,-7569712,466082,1028215
307,-123851,-8388608,5308180,6087283,-1041372,-7569537,466082,1028277
308,-123829,-8388608,5308098,6087281,-1041388,-7569491,466025,1028219
309,-123807,-8388608,5307990,6087228,-1041417,-7569399,465906,1028028
310,-123736,-8388608,5307772,6087170,-1041470,-7569390,465778,1027793
311,-123542,-8388608,5307626,6087093,-1041509,-7569462,465662,1027416
312,-123271,-8388608,5307491,6087024,-1041567,-7569456,465483,1026894
313,-122972,-8388608,5307313,6086969,-1041675,-7569447,465341,1026441
314,-122566,-8388608,5307187,6086886,-1041781,-7569547,465171,1025716
315,-122313,-8388608,5307126,6086820,-1041869,-7569149,464996,1025213
316,-122277,-8388608,5307043,6086817,-1041964,-7568449,464926,1025211
317,-122392,-8388608,5307009,6086823,-1042045,-7567693,464967,1025478
318,-122753,-8388608,5307001,6086812,-1042076,-7567001,465063,1026070
319,-123072,-8388608,5306942,6086814,-1042105,-7566630,465090,1026464
320,-123432,-8388608,5306812,6086766,-1042103,-7566389,465140,1026896
321,-123756,-8388608,5306651,6086781,-1042204,-7566355,465297,1027524
322,-123872,-8388608,5306574,6086805,-1042326,-7566352,465362,1027798
323,-123869,-8388608,5306556,6086787,-1042471,-7566177,465415,1028003
324,-123848,-8388608,5306543,6086744,-1042588,-7565868,465384,1028051
325,-123840,-8388608,5306444,6086708,-1042653,-7565384,465354,1028021
326,-123806,-8388608,5306368,6086707,-1042764,-7564904,465313,1028028
327,-123649,-8388608,5306284,6086661,-1042819,-7564249,465154,1027594
328,-123436,-8388608,5306125,6086524,-1042791,-7563556,464854,1026836
329,-123212,-8388608,5305948,6086425,-1042814,-7563140,464583,1026194
330,-122868,-8388608,5305803,6086352,-1042898,-7563072,464355,1025599
331,-122532,-8388608,5305758,6086268,-1042984,-7563360,464255,1025208
332,-122313,-8388608,5305838,6086197,-1043042,-7563139,464156,1024937
333,-122319,-8388608,5305873,6086134,-1043056,-7562495,464064,1024886
334,-122549,-8388608,5305904,6086069,-1043069,-7561597,464117,1025306
335,-122934,-8388608,5305945,6086056,-1043032,-7560990,464313,1026067
336,-123251,-8388608,5305986,6086029,-1043007,-7560139,464459,1026629
337,-123544,-8388608,5306028,6085979,-1042954,-7559394,464551,1027150
338,-123750,-8388608,5306051,6085903,-1042887,-7559124,464638,1027548
339,-123852,-8388608,5306053,6085811,-1042836,-7559061,464685,1027718
340,-123848,-8388608,5306084,6085687,-1042789,-7558745,464678,1027795
341,-123835,-8388608,5306126,6085588,-1042692,-7557283,464601,1027756
342,-123816,-8388608,5306155,6085428,-1042559,-7555032,464503,1027602
343,-123802,-8388608,5306139,6085272,-1042469,-7553628,464489,1027536
344,-123604,-8388608,5306116,6085091,-1042305,-7552388,464390,1027225
345,-123320,-8388608,5306081,6084894,-1042211,-7551236,464304,1026856
346,-123002,-8388608,5306043,6084685,-1042099,-7550031,464290,1026493
347,-122621,-8388608,5306031,6084426,-1041997,-7548596,464231,1026011
348,-122292,-8388608,5306063,6084233,-1041871,-7547663,464178,1025558
349,-122186,-8388608,5306137,6084024,-1041706,-7547567,464208,1025469
350,-122219,-8388608,5306249,6083834,-1041525,-7547377,464330,1025713
351,-122481,-8388608,5306323,6083716,-1041315,-7546767,464489,1026271
352,-122815,-8388608,5306371,6083586,-1041141,-7545759,464656,1026868
353,-123111,-8388608,5306433,6083431,-1040954,-7544783,464809,1027400
354,-123461,-8388608,5306365,6083231,-1040737,-7544229,465012,1027988
355,-123647,-8388608,5306342,6083026,-1040539,-7544054,465163,1028411
356,-123669,-8388608,5306291,6082813,-1040359,-7543874,465299,1028518
357,-123648,-8388608,5306220,6082604,-1040221,-7543612,465375,1028553
358,-123674,-8388608,5306153,6082383,-1040037,-7543123,465411,1028696
359,-123671,-8388608,5306103,6082111,-1039819,-7542556,465469,1028732
360,-123652,-8388608,5305995,6081821,-1039616,-7542336,465509,1028619
361,-123444,-8388608,5305854,6081516,-1039443,-7542277,465464,1028253
362,-123141,-8388608,5305729,6081227,-1039258,-7542358,465403,1027781
363,-122806,-8388608,5305614,6080978,-1039119,-7542491,465340,1027304
364,-122438,-8388608,5305459,6080705,-1038978,-7542622,465274,1026806
365,-122241,-8388608,5305334,6080484,-1038811,-7542685,465317,1026616
366,-122204,-8388608,5305270,6080330,-1038646,-7542536,465411,1026594
367,-122369,-8388608,5305160,6080162,-1038498,-7541865,465567,1026908
368,-122734,-8388608,5305014,6079996,-1038294,-7540809,465771,1027552
369,-123054,-8388608,5304880,6079831,-1038119,-7539391,465948,1028036
370,-123416,-8388608,5304711,6079704,-1037964,-7538012,466090,1028538
371,-123762,-8388608,5304528,6079581,-1037820,-7536840,466256,1029045
372,-123855,-8388608,5304290,6079442,-1037734,-7536033,466349,1029248
373,-123899,-8388608,5304058,6079322,-1037669,-7535562,466377,1029377
374,-123969,-8388608,5303831,6079190,-1037604,-7535101,466431,1029507
375,-123975,-8388608,5303611,6079081,-1037584,-7534602,466439,1029505
376,-123957,-8388608,5303379,6078971,-1037537,-7533777,466416,1029465
377,-123817,-8388608,5303129,6078837,-1037484,-7532528,466369,1029216
378,-123632,-8388608,5302847,6078683,-1037483,-7531274,466234,1028823
379,-123442,-8388608,5302625,6078568,-1037506,-7530653,466116,1028436
380,-123136,-8388608,5302396,6078425,-1037558,-7530375,465968,1027915
381,-122834,-8388608,5302176,6078305,-1037589,-7530004,465807,1027339
382,-122672,-8388608,5301969,6078238,-1037559,-7529502,465714,1027097
383,-122713,-8388608,5301786,6078219,-1037579,-7529172,465718,1027184
384,-122987,-8388608,5301674,6078221,-1037604,-7528943,465866,1027691
385,-123382,-8388608,5301548,6078225,-1037574,-7528606,466047,1028374
386,-123689,-8388608,5301393,6078243,-1037537,-7528026,466134,1028875
387,-124112,-8388608,5301246,6078271,-1037551,-7527624,466235,1029524
388,-124397,-8388608,5301104,6078312,-1037584,-7527109,466315,1030014
389,-124481,-8388608,5300918,6078338,-1037672,-7526459,466381,1030278
390,-124554,-8388608,5300793,6078351,-1037749,-7525840,466427,1030419
391,-124605,-8388608,5300674,6078354,-1037822,-7525317,466365,1030411
392,-124576,-8388608,5300548,6078378,-1037836,-7524478,466188,1030164
393,-124559,-8388608,5300351,6078385,-1037902,-7523699,466029,1029974
394,-124454,-8388608,5300123,6078338,-1038049,-7523193,465896,1029768
395,-124282,-8388608,5299953,6078300,-1038167,-7522786,465712,1029394
396,-124056,-8388608,5299776,6078291,-1038299,-7522351,465489,1028891
397,-123721,-8388608,5299598,6078269,-1038468,-7521409,465287,1028315
398,-123440,-8388608,5299453,6078266,-1038675,-7520669,465158,1027854
399,-123419,-8388608,5299351,6078281,-1038904,-7520394,465105,1027831
400,-123544,-8388608,5299230,6078315,-1039076,-7519854,465140,1028081
401,-123832,-8388608,5299173,6078376,-1039197,-7519153,465282,1028659
402,-124159,-8388608,5299093,6078404,-1039319,-7518447,465392,1029301
403,-124492,-8388608,5298991,6078414,-1039404,-7517508,465433,1029794
404,-124882,-8388608,5298939,6078479,-1039505,-7515929,465473,1030328
405,-125157,-8388608,5298875,6078508,-1039613,-7514026,465453,1030576
406,-125246,-8388608,5298675,6078473,-1039736,-7513374,465368,1030557
407,-125288,-8388608,5298540,6078501,-1039906,-7513112,465351,1030643
408,-125332,-8388608,5298466,6078534,-1040096,-7512711,465316,1030683
409,-123721,-8388608,5299598,6078269,-1038468,-7521409,465287,1028315
410,-123440,-8388608,5299453,6078266,-1038675,-7520669,465158,1027854
411,-123419,-8388608,5299351,6078281,-1038904,-7520394,465105,1027831
412,-123544,-8388608,5299230,6078315,-1039076,-7519854,465140,1028081
413,-123832,-8388608,5299173,6078376,-1039197,-7519153,465282,1028659
414,-124159,-8388608,5299093,6078404,-1039319,-7518447,465392,1029301
415,-124492,-8388608,5298991,6078414,-1039404,-7517508,465433,1029794
416,-124882,-8388608,5298939,6078479,-1039505,-7515929,465473,1030328
417,-125157,-8388608,5298875,6078508,-1039613,-7514026,465453,1030576
418,-125246,-8388608,5298675,6078473,-1039736,-7513374,465368,1030557
419,-125288,-8388608,5298540,6078501,-1039906,-7513112,465351,1030643
420,-125332,-8388608,5298466,6078534,-1040096,-7512711,465316,1030683
421,-125369,-8388608,5298441,6078564,-1040264,-7512480,465276,1030714
422,-125319,-8388608,5298317,6078573,-1040441,-7512442,465234,1030644
423,-125181,-8388608,5298193,6078584,-1040671,-7512523,465127,1030383
424,-124996,-8388608,5298137,6078557,-1040844,-7512455,464939,1029823
425,-124694,-8388608,5298033,6078479,-1040964,-7511943,464519,1028766
426,-124395,-8388608,5297761,6078429,-1041091,-7511691,464196,1028017
427,-124248,-8388608,5297625,6078431,-1041364,-7512109,464308,1028089
428,-124172,-8388608,5297674,6078434,-1041511,-7512191,464346,1028099
429,-124336,-8388608,5297703,6078475,-1041634,-7512006,464403,1028459
430,-124685,-8388608,5297771,6078524,-1041773,-7511896,464563,1029209
431,-125047,-8388608,5297837,6078537,-1041860,-7511694,464708,1029806
432,-125423,-8388608,5297868,6078546,-1041901,-7511372,464819,1030341
433,-125774,-8388608,5297866,6078529,-1041917,-7511082,464904,1030944
434,-125933,-8388608,5297918,6078476,-1041966,-7510934,464939,1031254
435,-125994,-8388608,5298005,6078430,-1041946,-7510738,464896,1031276
436,-126020,-8388608,5298007,6078284,-1041866,-7510419,464719,1030933
437,-126089,-8388608,5297917,6078144,-1041824,-7510626,464723,1030969
438,-126093,-8388608,5297924,6078026,-1041794,-7510968,464806,1031164
439,-126007,-8388608,5297943,6077861,-1041722,-7510639,464761,1030976
440,-125807,-8388608,5297926,6077712,-1041636,-7510436,464659,1030669
441,-125556,-8388608,5297934,6077491,-1041477,-7510539,464523,1030233
442,-125237,-8388608,5297904,6077244,-1041317,-7510554,464283,1029485
443,-124877,-8388608,5297838,6076970,-1041176,-7510675,464214,1029008
444,-124726,-8388608,5297888,6076740,-1041027,-7510764,464253,1028909
445,-124731,-8388608,5297938,6076483,-1040799,-7510637,464322,1029019
446,-124950,-8388608,5298016,6076256,-1040561,-7509657,464450,1029451
447,-125323,-8388608,5298081,6076016,-1040309,-7508702,464683,1030148
448,-125644,-8388608,5298063,6075773,-1040036,-7507599,464865,1030713
449,-125997,-8388608,5298063,6075501,-1039757,-7506234,465094,1031351
450,-126289,-8388608,5298072,6075263,-1039437,-7505414,465261,1031791
451,-126409,-8388608,5298005,6075018,-1039168,-7505042,465373,1031996
452,-126462,-8388608,5297940,6074716,-1038888,-7504762,465401,1032014
453,-126537,-8388608,5297886,6074380,-1038602,-7504146,465423,1032007
454,-126586,-8388608,5297763,6074073,-1038362,-7503785,465471,1032079
455,-126561,-8388608,5297673,6073737,-1038127,-7503368,465523,1032053
456,-126414,-8388608,5297523,6073397,-1037851,-7502610,465483,1031783
457,-126209,-8388608,5297362,6073019,-1037639,-7501805,465421,1031331
458,-125968,-8388608,5297198,6072672,-1037391,-7501197,465342,1030864
459,-125637,-8388608,5297021,6072314,-1037183,-7500857,465321,1030346
460,-125381,-8388608,5296895,6071969,-1036988,-7500587,465363,1030024
461,-125290,-8388608,5296838,6071683,-1036760,-7500455,465431,1029971
462,-125310,-8388608,5296788,6071451,-1036548,-7500092,465566,1030168
463,-125609,-8388608,5296746,6071205,-1036276,-7499308,465753,1030653
464,-125992,-8388608,5296640,6070962,-1036027,-7498322,465846,1031204
465,-126316,-8388608,5296531,6070769,-1035734,-7497443,465932,1031645
466,-126711,-8388608,5296399,6070561,-1035471,-7496438,466113,1032224
467,-126957,-8388608,5296223,6070302,-1035252,-7495528,466174,1032521
468,-127031,-8388608,5296044,6070079,-1035086,-7495124,466166,1032640
469,-127089,-8388608,5295917,6069881,-1034929,-7494727,466220,1032723
470,-127116,-8388608,5295790,6069697,-1034769,-7494126,466277,1032779
471,-127087,-8388608,5295618,6069498,-1034562,-7493032,466203,1032518
472,-127049,-8388608,5295373,6069343,-1034434,-7491661,466089,1032294
473,-126913,-8388608,5295123,6069177,-1034342,-7490714,466022,1032064
474,-126699,-8388608,5294948,6068988,-1034240,-7488840,465932,1031771
475,-126429,-8388608,5294778,6068811,-1034159,-7487152,465800,1031358
476,-126029,-8388608,5294626,6068645,-1034086,-7486292,465572,1030704
477,-126711,-8388608,5296399,6070561,-1035471,-7496438,466113,1032224
478,-126957,-8388608,5296223,6070302,-1035252,-7495528,466174,1032521
479,-127031,-8388608,5296044,6070079,-1035086,-7495124,466166,1032640
480,-127089,-8388608,5295917,6069881,-1034929,-7494727,466220,1032723
481,-127116,-8388608,5295790,6069697,-1034769,-7494126,466277,1032779
482,-127087,-8388608,5295618,6069498,-1034562,-7493032,466203,1032518
483,-127049,-8388608,5295373,6069343,-1034434,-7491661,466089,1032294
484,-126913,-8388608,5295123,6069177,-1034342,-7490714,466022,1032064
485,-126699,-8388608,5294948,6068988,-1034240,-7488840,465932,1031771
486,-126429,-8388608,5294778,6068811,-1034159,-7487152,465800,1031358
487,-126029,-8388608,5294626,6068645,-1034086,-7486292,465572,1030704
488,-125829,-8388608,5294503,6068513,-1034014,-7485725,465438,1030339
489,-125802,-8388608,5294388,6068390,-1033939,-7484824,465387,1030251
490,-125914,-8388608,5294334,6068293,-1033875,-7484189,465458,1030556
491,-126276,-8388608,5294275,6068278,-1033786,-7483350,465591,1031183
492,-126612,-8388608,5294214,6068236,-1033674,-7481988,465753,1031797
493,-126919,-8388608,5294164,6068215,-1033579,-7480541,465913,1032312
494,-127249,-8388608,5294083,6068218,-1033517,-7478963,465998,1032812
495,-127440,-8388608,5293978,6068170,-1033508,-7477194,466005,1033134
496,-127484,-8388608,5293861,6068112,-1033464,-7475856,465993,1033194
497,-127546,-8388608,5293704,6068074,-1033467,-7475347,465969,1033269
498,-127582,-8388608,5293633,6068028,-1033488,-7475067,465956,1033364
499,-127571,-8388608,5293552,6068004,-1033468,-7474887,465899,1033318
500,-127456,-8388608,5293389,6067950,-1033472,-7474816,465796,1033088
501,-127264,-8388608,5293218,6067887,-1033509,-7474840,465614,1032694
502,-127029,-8388608,5293068,6067836,-1033563,-7474654,465435,1032226
503,-126727,-8388608,5292926,6067824,-1033634,-7474401,465329,1031766
504,-126357,-8388608,5292851,6067788,-1033718,-7474464,465206,1031326
505,-126194,-8388608,5292804,6067726,-1033770,-7474111,465176,1031149
506,-126204,-8388608,5292789,6067753,-1033790,-7473491,465193,1031219
507,-126405,-8388608,5292748,6067802,-1033804,-7472807,465271,1031599
508,-126771,-8388608,5292764,6067808,-1033799,-7472106,465328,1032118
509,-127105,-8388608,5292693,6067824,-1033827,-7471328,465391,1032644
510,-127507,-8388608,5292578,6067835,-1033844,-7470184,465529,1033247
511,-127787,-8388608,5292461,6067851,-1033814,-7468846,465532,1033547
512,-127894,-8388608,5292256,6067811,-1033809,-7467594,465434,1033563
513,-127981,-8388608,5292054,6067807,-1033891,-7466931,465446,1033746
514,-128038,-8388608,5291941,6067809,-1033984,-7466452,465565,1033991
515,-128077,-8388608,5291870,6067793,-1034033,-7466049,465554,1034067
516,-128060,-8388608,5291755,6067766,-1034036,-7465615,465452,1033886
517,-127944,-8388608,5291583,6067727,-1034076,-7465174,465373,1033601
518,-127741,-8388608,5291491,6067699,-1034129,-7464996,465306,1033293
519,-127476,-8388608,5291403,6067638,-1034185,-7464539,465181,1032864
520,-127161,-8388608,5291261,6067549,-1034276,-7464312,465042,1032443
521,-126906,-8388608,5291194,6067494,-1034339,-7464232,465039,1032204
522,-126776,-8388608,5291239,6067477,-1034380,-7463852,465026,1032078
523,-126874,-8388608,5291183,6067423,-1034342,-7463103,465060,1032236
524,-127202,-8388608,5291209,6067398,-1034314,-7462140,465225,1032828
525,-127571,-8388608,5291227,6067332,-1034296,-7461407,465358,1033379
526,-127927,-8388608,5291177,6067266,-1034210,-7460772,465418,1033718
527,-128261,-8388608,5291064,6067193,-1034120,-7460347,465591,1034309
528,-128513,-8388608,5290991,6067128,-1034050,-7459761,465766,1034776
529,-128578,-8388608,5290951,6066987,-1033909,-7458514,465701,1034511
530,-128679,-8388608,5290767,6066823,-1033759,-7457361,465617,1034436
531,-128710,-8388608,5290588,6066673,-1033692,-7456859,465794,1034783
532,-128762,-8388608,5290589,6066542,-1033649,-7456674,465949,1035096
533,-128730,-8388608,5290611,6066383,-1033536,-7456507,465998,1035041
534,-128572,-8388608,5290559,6066177,-1033404,-7456129,465959,1034706
535,-128319,-8388608,5290478,6065986,-1033288,-7455671,465891,1034254
536,-128021,-8388608,5290418,6065784,-1033129,-7455259,465855,1033902
537,-127636,-8388608,5290405,6065509,-1032962,-7454538,465824,1033365
538,-127388,-8388608,5290409,6065215,-1032762,-7453236,465833,1032979
539,-127287,-8388608,5290443,6064942,-1032549,-7452238,465899,1032869
540,-127471,-8388608,5290468,6064715,-1032299,-7450848,466064,1033185
541,-127831,-8388608,5290426,6064517,-1031999,-7449199,466377,1033929
542,-128201,-8388608,5290223,6064315,-1031712,-7448221,466613,1034551
543,-128520,-8388608,5290203,6064073,-1031480,-7447707,466783,1035124
544,-128832,-8388608,5290204,6063823,-1031181,-7447061,467048,1035714
545,-129027,-8388608,5290166,6063555,-1030900,-7446559,467188,1036046
546,-129073,-8388608,5290133,6063234,-1030564,-7446308,467254,1036106
547,-129111,-8388608,5290044,6062874,-1030227,-7446209,467414,1036148
548,-129127,-8388608,5289903,6062501,-1029862,-7445751,467531,1036224
549,-129081,-8388608,5289778,6062116,-1029501,-7445016,467589,1036213
550,-128991,-8388608,5289684,6061688,-1029159,-7444507,467626,1035965
551,-128744,-8388608,5289499,6061247,-1028810,-7443570,467568,1035555
552,-128464,-8388608,5289313,6060810,-1028466,-7442481,467522,1035098
553,-128172,-8388608,5289154,6060366,-1028146,-7441861,467474,1034633
554,-127901,-8388608,5288999,6059949,-1027794,-7440862,467457,1034138
555,-127745,-8388608,5288875,6059509,-1027428,-7439693,467467,1033830
556,-127780,-8388608,5288748,6059129,-1027081,-7438552,467556,1033900
557,-127970,-8388608,5288652,6058794,-1026746,-7436532,467697,1034326
558,-128303,-8388608,5288554,6058478,-1026371,-7434846,467920,1034911
559,-128619,-8388608,5288386,6058118,-1025983,-7433944,468114,1035380
560,-128953,-8388608,5288244,6057809,-1025615,-7433015,468345,1035891
561,-129278,-8388608,5288061,6057461,-1025236,-7432168,468581,1036416
562,-129402,-8388608,5287843,6057134,-1024909,-7431325,468626,1036528
563,-129483,-8388608,5287602,6056831,-1024611,-7430249,468628,1036586
564,-129529,-8388608,5287360,6056541,-1024336,-7428649,468638,1036651
565,-129567,-8388608,5287189,6056243,-1024055,-7426925,468651,1036619
566,-129560,-8388608,5286966,6055983,-1023791,-7425442,468595,1036481
567,-129427,-8388608,5286727,6055719,-1023561,-7424152,468538,1036126
568,-129232,-8388608,5286532,6055478,-1023375,-7423067,468421,1035743
569,-129011,-8388608,5286324,6055277,-1023210,-7421790,468258,1035372
570,-128666,-8388608,5286111,6055067,-1023057,-7420988,468117,1034781
571,-128387,-8388608,5285893,6054859,-1022912,-7420464,468015,1034286
572,-128300,-8388608,5285794,6054705,-1022756,-7419657,467929,1034077
573,-128356,-8388608,5285667,6054582,-1022609,-7417876,467925,1034266
574,-128620,-8388608,5285582,6054525,-1022464,-7415491,467993,1034738
575,-128987,-8388608,5285489,6054504,-1022299,-7414251,468099,1035371
576,-129303,-8388608,5285424,6054449,-1022182,-7413235,468188,1035896
577,-129630,-8388608,5285338,6054425,-1022088,-7412022,468223,1036374
578,-129917,-8388608,5285239,6054405,-1021964,-7410330,468249,1036820
579,-129232,-8388608,5286532,6055478,-1023375,-7423067,468421,1035743
580,-129011,-8388608,5286324,6055277,-1023210,-7421790,468258,1035372
581,-128666,-8388608,5286111,6055067,-1023057,-7420988,468117,1034781
582,-128387,-8388608,5285893,6054859,-1022912,-7420464,468015,1034286
583,-128300,-8388608,5285794,6054705,-1022756,-7419657,467929,1034077
584,-128356,-8388608,5285667,6054582,-1022609,-7417876,467925,1034266
585,-128620,-8388608,5285582,6054525,-1022464,-7415491,467993,1034738
586,-128987,-8388608,5285489,6054504,-1022299,-7414251,468099,1035371
587,-129303,-8388608,5285424,6054449,-1022182,-7413235,468188,1035896
588,-129630,-8388608,5285338,6054425,-1022088,-7412022,468223,1036374
589,-129917,-8388608,5285239,6054405,-1021964,-7410330,468249,1036820
590,-130009,-8388608,5285119,6054351,-1021902,-7408709,468189,1036897
591,-130046,-8388608,5285010,6054364,-1021869,-7407299,468091,1036946
592,-130064,-8388608,5284901,6054359,-1021908,-7406019,468023,1036939
593,-130097,-8388608,5284746,6054379,-1022074,-7405005,467987,1036955
594,-130046,-8388608,5284638,6054383,-1022163,-7403914,467943,1036780
595,-129864,-8388608,5284520,6054371,-1022211,-7402794,467810,1036461
596,-129711,-8388608,5284360,6054376,-1022256,-7401474,467621,1036090
597,-129472,-8388608,5284184,6054318,-1022321,-7400563,467474,1035569
598,-129146,-8388608,5284014,6054266,-1022398,-7399952,467290,1035002
599,-128947,-8388608,5283934,6054251,-1022473,-7398096,467156,1034586
600,-128912,-8388608,5283871,6054224,-1022576,-7395975,467136,1034512
601,-129056,-8388608,5283830,6054241,-1022641,-7394750,467124,1034761
602,-129422,-8388608,5283812,6054283,-1022682,-7393899,467237,1035406
603,-129767,-8388608,5283790,6054327,-1022696,-7392786,467356,1035974
604,-130114,-8388608,5283733,6054319,-1022701,-7391818,467553,1036628
605,-130466,-8388608,5283708,6054324,-1022758,-7391088,467672,1037256
606,-130677,-8388608,5283668,6054314,-1022834,-7390504,467718,1037506
607,-130726,-8388608,5283588,6054310,-1022874,-7389894,467591,1037338
608,-130778,-8388608,5283410,6054228,-1022884,-7389069,467443,1037144
609,-130881,-8388608,5283214,6054157,-1022939,-7388426,467445,1037199
610,-130920,-8388608,5283071,6054093,-1023060,-7388083,467493,1037320
611,-130789,-8388608,5282988,6054004,-1023137,-7387986,467431,1037117
612,-130625,-8388608,5282852,6053926,-1023239,-7387701,467356,1036787
613,-130381,-8388608,5282696,6053809,-1023306,-7387092,467199,1036213
614,-130107,-8388608,5282547,6053684,-1023339,-7386256,466951,1035368
615,-129785,-8388608,5282402,6053559,-1023384,-7385359,466684,1034567
616,-129626,-8388608,5282268,6053438,-1023427,-7384827,466573,1034256
617,-129637,-8388608,5282149,6053326,-1023552,-7385173,466738,1034520
618,-129907,-8388608,5282199,6053268,-1023626,-7385279,466958,1035123
619,-130256,-8388608,5282259,6053220,-1023622,-7384871,467129,1035772
620,-130539,-8388608,5282249,6053168,-1023602,-7384420,467219,1036159
621,-130906,-8388608,5282191,6053089,-1023538,-7383914,467253,1036522
622,-131246,-8388608,5282131,6053005,-1023496,-7383173,467235,1036764
623,-131416,-8388608,5282029,6052871,-1023479,-7382746,467265,1036994
624,-131465,-8388608,5281979,6052785,-1023491,-7382515,467353,1037244
625,-130107,-8388608,5282547,6053684,-1023339,-7386256,466951,1035368
626,-129785,-8388608,5282402,6053559,-1023384,-7385359,466684,1034567
627,-129626,-8388608,5282268,6053438,-1023427,-7384827,466573,1034256
628,-129637,-8388608,5282149,6053326,-1023552,-7385173,466738,1034520
629,-129907,-8388608,5282199,6053268,-1023626,-7385279,466958,1035123
630,-130256,-8388608,5282259,6053220,-1023622,-7384871,467129,1035772
631,-130539,-8388608,5282249,6053168,-1023602,-7384420,467219,1036159
632,-130906,-8388608,5282191,6053089,-1023538,-7383914,467253,1036522
633,-131246,-8388608,5282131,6053005,-1023496,-7383173,467235,1036764
634,-131416,-8388608,5282029,6052871,-1023479,-7382746,467265,1036994
635,-131465,-8388608,5281979,6052785,-1023491,-7382515,467353,1037244
636,-131477,-8388608,5282045,6052722,-1023524,-7382378,467507,1037506
637,-131488,-8388608,5282101,6052618,-1023523,-7382184,467560,1037560
638,-131429,-8388608,5282143,6052540,-1023492,-7381542,467449,1037366
639,-131287,-8388608,5282058,6052367,-1023451,-7380942,467298,1037005
640,-131074,-8388608,5282035,6052178,-1023419,-7380641,467155,1036562
641,-130807,-8388608,5282046,6051996,-1023351,-7380589,467001,1036027
642,-130503,-8388608,5282038,6051828,-1023315,-7380652,466887,1035512
643,-130186,-8388608,5282116,6051646,-1023287,-7380616,466770,1034961
644,-130112,-8388608,5282159,6051465,-1023208,-7380532,466796,1034949
645,-130119,-8388608,5282298,6051314,-1023122,-7380195,466950,1035180
646,-130373,-8388608,5282484,6051199,-1022925,-7379302,467065,1035609
647,-130733,-8388608,5282536,6051028,-1022674,-7378312,467225,1036133
648,-131019,-8388608,5282521,6050824,-1022457,-7377656,467389,1036575
649,-131370,-8388608,5282536,6050642,-1022234,-7377321,467608,1037308
650,-131598,-8388608,5282615,6050449,-1022044,-7377038,467871,1037950
651,-131668,-8388608,5282668,6050271,-1021836,-7376439,467921,1038123
652,-131669,-8388608,5282721,6050045,-1021629,-7374882,467915,1038059
653,-131634,-8388608,5282731,6049842,-1021395,-7372218,467960,1038054
654,-131623,-8388608,5282742,6049608,-1021167,-7370719,467978,1038101
655,-131559,-8388608,5282770,6049374,-1020919,-7369869,467975,1037915
656,-131362,-8388608,5282772,6049127,-1020721,-7369512,467849,1037442
657,-131124,-8388608,5282743,6048848,-1020502,-7369477,467833,1037075
658,-130817,-8388608,5282674,6048544,-1020308,-7369289,467757,1036696
659,-130412,-8388608,5282612,6048229,-1020124,-7368879,467674,1036132
660,-130174,-8388608,5282658,6047937,-1019897,-7368471,467698,1035826
661,-130083,-8388608,5282638,6047655,-1019649,-7368129,467754,1035795
662,-130147,-8388608,5282618,6047404,-1019366,-7367610,467895,1036087
663,-130426,-8388608,5282653,6047173,-1019035,-7366971,468151,1036691
664,-130736,-8388608,5282594,6046899,-1018697,-7366577,468373,1037275
665,-131068,-8388608,5282534,6046631,-1018415,-7366136,468555,1037803
666,-131374,-8388608,5282449,6046425,-1018135,-7365657,468733,1038380
667,-131551,-8388608,5282344,6046224,-1017861,-7365314,468856,1038703
668,-131619,-8388608,5282228,6046023,-1017639,-7364647,468924,1038834
669,-131626,-8388608,5282105,6045818,-1017411,-7363632,468918,1038860
670,-131689,-8388608,5282013,6045605,-1017231,-7363003,468946,1038943
671,-131683,-8388608,5281936,6045444,-1017061,-7361974,468973,1038913
672,-131531,-8388608,5281803,6045236,-1016903,-7361142,468948,1038697
673,-131315,-8388608,5281661,6045011,-1016729,-7361090,468876,1038368
674,-131081,-8388608,5281520,6044786,-1016567,-7361206,468782,1037999
675,-130813,-8388608,5281356,6044585,-1016434,-7361293,468694,1037572
676,-130419,-8388608,5281219,6044374,-1016352,-7361401,468559,1036974
677,-130256,-8388608,5281088,6044214,-1016240,-7361532,468504,1036764
678,-130249,-8388608,5280923,6044043,-1016114,-7361542,468552,1036801
679,-130440,-8388608,5280844,6043916,-1015959,-7361387,468722,1037203
680,-130779,-8388608,5280753,6043794,-1015757,-7361019,468874,1037737
681,-131119,-8388608,5280613,6043706,-1015603,-7360463,468980,1038266
682,-131494,-8388608,5280446,6043626,-1015452,-7359882,469124,1038863
683,-131823,-8388608,5280331,6043549,-1015337,-7359655,469248,1039425
684,-131952,-8388608,5280183,6043471,-1015262,-7359512,469263,1039554
685,-132007,-8388608,5280016,6043349,-1015186,-7359334,469273,1039576
686,-132110,-8388608,5279863,6043238,-1015149,-7359064,469310,1039665
687,-132158,-8388608,5279706,6043206,-1015129,-7358639,469334,1039711
688,-132159,-8388608,5279506,6043165,-1015122,-7357739,469277,1039629
689,-132037,-8388608,5279351,6043111,-1015136,-7357044,469179,1039364
690,-131851,-8388608,5279198,6043088,-1015212,-7356692,469113,1039058
691,-131656,-8388608,5279061,6042968,-1015306,-7356335,469041,1038712
692,-131119,-8388608,5280613,6043706,-1015603,-7360463,468980,1038266
693,-131494,-8388608,5280446,6043626,-1015452,-7359882,469124,1038863
694,-131823,-8388608,5280331,6043549,-1015337,-7359655,469248,1039425
695,-131952,-8388608,5280183,6043471,-1015262,-7359512,469263,1039554
696,-132007,-8388608,5280016,6043349,-1015186,-7359334,469273,1039576
697,-132110,-8388608,5279863,6043238,-1015149,-7359064,469310,1039665
698,-132158,-8388608,5279706,6043206,-1015129,-7358639,469334,1039711
699,-132159,-8388608,5279506,6043165,-1015122,-7357739,469277,1039629
700,-132037,-8388608,5279351,6043111,-1015136,-7357044,469179,1039364
701,-131851,-8388608,5279198,6043088,-1015212,-7356692,469113,1039058
702,-131656,-8388608,5279061,6042968,-1015306,-7356335,469041,1038712
703,-131319,-8388608,5278916,6042881,-1015354,-7355277,468839,1038083
704,-130999,-8388608,5278741,6042827,-1015384,-7354072,468620,1037473
705,-130892,-8388608,5278618,6042843,-1015454,-7353657,468548,1037264
706,-130909,-8388608,5278572,6042841,-1015524,-7353460,468589,1037394
707,-131215,-8388608,5278548,6042843,-1015537,-7353186,468692,1037937
708,-131582,-8388608,5278478,6042868,-1015540,-7352954,468828,1038509
709,-131912,-8388608,5278404,6042906,-1015542,-7352632,468906,1038954
710,-132262,-8388608,5278282,6042938,-1015542,-7352256,469013,1039518
711,-132566,-8388608,5278150,6042906,-1015624,-7352145,469166,1040064
712,-132626,-8388608,5278074,6042894,-1015729,-7352033,469234,1040259
713,-132670,-8388608,5277983,6042899,-1015792,-7351585,469282,1040291
714,-132718,-8388608,5277883,6042929,-1015851,-7350861,469282,1040239
715,-132772,-8388608,5277728,6042916,-1015932,-7350089,469264,1040219
716,-132736,-8388608,5277607,6042868,-1015964,-7348971,469164,1039973
717,-132579,-8388608,5277403,6042724,-1016015,-7348018,468940,1039473
718,-132422,-8388608,5277168,6042615,-1016123,-7347674,468786,1039056
719,-132185,-8388608,5276983,6042594,-1016257,-7347690,468741,1038620
720,-131829,-8388608,5276854,6042521,-1016383,-7347632,468664,1038103
721,-131607,-8388608,5276752,6042417,-1016477,-7347666,468641,1037730
722,-131521,-8388608,5276708,6042364,-1016532,-7347746,468678,1037564
723,-131674,-8388608,5276672,6042359,-1016601,-7347757,468771,1037784
724,-132038,-8388608,5276671,6042369,-1016604,-7347584,468895,1038267
725,-132398,-8388608,5276594,6042349,-1016571,-7347114,468887,1038561
726,-132722,-8388608,5276438,6042352,-1016609,-7347026,469112,1039226
727,-133028,-8388608,5276411,6042321,-1016646,-7346931,469413,1039981
728,-133258,-8388608,5276412,6042261,-1016655,-7346318,469467,1040271
729,-133327,-8388608,5276283,6042185,-1016664,-7345119,469394,1040193
730,-133372,-8388608,5276209,6042089,-1016693,-7344196,469441,1040262
731,-133413,-8388608,5276189,6041982,-1016714,-7343649,469456,1040224
732,-133460,-8388608,5276154,6041866,-1016737,-7343368,469420,1040204
733,-133417,-8388608,5276066,6041718,-1016751,-7343336,469374,1040028
734,-133228,-8388608,5275989,6041514,-1016759,-7343354,469296,1039603
735,-133010,-8388608,5275915,6041328,-1016752,-7343376,469260,1039206
736,-132717,-8388608,5275803,6041083,-1016716,-7343193,469154,1038672
737,-132377,-8388608,5275723,6040889,-1016682,-7343053,469072,1038076
738,-132157,-8388608,5275692,6040702,-1016635,-7342855,469051,1037834
739,-132111,-8388608,5275668,6040531,-1016541,-7342016,469114,1037833
740,-132277,-8388608,5275658,6040385,-1016429,-7340946,469333,1038266
741,-132609,-8388608,5275690,6040267,-1016282,-7340382,469578,1038911
742,-132916,-8388608,5275736,6040124,-1016114,-7339651,469736,1039418
743,-133222,-8388608,5275791,6039970,-1015955,-7339014,469892,1039959
744,-133536,-8388608,5275835,6039805,-1015809,-7338680,470059,1040506
745,-133617,-8388608,5275855,6039584,-1015653,-7338409,470172,1040688
746,-133643,-8388608,5275828,6039335,-1015445,-7337882,470215,1040761
747,-133631,-8388608,5275883,6039105,-1015241,-7337271,470304,1040791
748,-133605,-8388608,5275943,6038884,-1015081,-7336710,470392,1040765
749,-133536,-8388608,5275956,6038637,-1014926,-7335994,470385,1040697
750,-133389,-8388608,5275929,6038375,-1014746,-7335574,470436,1040536
751,-133124,-8388608,5275918,6038082,-1014594,-7335195,470478,1040234
752,-132831,-8388608,5275925,6037818,-1014402,-7335201,470512,1039928
753,-132477,-8388608,5275980,6037576,-1014232,-7335256,470431,1039394
754,-132129,-8388608,5275969,6037288,-1014040,-7335050,470256,1038688
755,-132010,-8388608,5275901,6036992,-1013811,-7334806,470206,1038363
756,-132004,-8388608,5275842,6036728,-1013594,-7334878,470366,1038646
757,-132226,-8388608,5275973,6036535,-1013379,-7335017,470719,1039356
758,-132594,-8388608,5276070,6036316,-1013119,-7334616,470991,1040019
759,-132897,-8388608,5276044,6036086,-1012874,-7334277,471193,1040556
760,-133169,-8388608,5276070,6035863,-1012619,-7333905,471413,1041121
761,-133382,-8388608,5276036,6035597,-1012337,-7333437,471613,1041570
762,-133446,-8388608,5275974,6035311,-1012041,-7333204,471719,1041679
763,-133490,-8388608,5275904,6035020,-1011781,-7333169,471814,1041808
764,-133459,-8388608,5275868,6034694,-1011464,-7332253,471823,1041744
765,-133469,-8388608,5275787,6034427,-1011152,-7330974,471816,1041685
766,-133398,-8388608,5275676,6034141,-1010858,-7330164,471798,1041566
767,-133226,-8388608,5275563,6033857,-1010592,-7329786,471746,1041284
768,-133012,-8388608,5275408,6033536,-1010343,-7329633,471701,1040961
769,-132692,-8388608,5275289,6033203,-1010082,-7329709,471661,1040524
770,-132271,-8388608,5275177,6032868,-1009848,-7329603,471554,1039868
771,-132027,-8388608,5275024,6032564,-1009623,-7329200,471513,1039498
772,-131925,-8388608,5274916,6032233,-1009334,-7328731,471560,1039416
773,-132030,-8388608,5274841,6031934,-1009022,-7327731,471644,1039655
774,-132362,-8388608,5274751,6031691,-1008732,-7326413,471828,1040218
775,-132678,-8388608,5274698,6031492,-1008428,-7325381,471961,1040740
776,-133023,-8388608,5274591,6031295,-1008161,-7324575,472114,1041282
777,-133391,-8388608,5274470,6031096,-1007914,-7323821,472252,1041822
778,-133579,-8388608,5274336,6030879,-1007682,-7322647,472337,1042084
779,-133628,-8388608,5274181,6030682,-1007469,-7321841,472385,1042141
780,-133662,-8388608,5274043,6030526,-1007255,-7321467,472384,1042181
781,-133666,-8388608,5273904,6030346,-1007075,-7321068,472378,1042169
782,-133666,-8388608,5273723,6030139,-1006896,-7320489,472366,1042159
783,-133579,-8388608,5273540,6029958,-1006749,-7320008,472327,1042027
784,-133432,-8388608,5273276,6029793,-1006595,-7319654,472212,1041669
785,-133238,-8388608,5273032,6029581,-1006496,-7318591,472102,1041192
786,-132943,-8388608,5272826,6029375,-1006369,-7317879,471973,1040696
787,-132593,-8388608,5272629,6029189,-1006316,-7317672,471835,1040198
788,-132424,-8388608,5272463,6029056,-1006271,-7317690,471774,1039989
789,-132415,-8388608,5272339,6028956,-1006191,-7317551,471744,1039979
790,-132596,-8388608,5272249,6028862,-1006129,-7317006,471796,1040263
791,-132971,-8388608,5272176,6028831,-1006069,-7315692,471930,1040869
792,-133353,-8388608,5272019,6028774,-1006011,-7314663,472083,1041424
793,-133736,-8388608,5271866,6028735,-1005977,-7313932,472237,1042031
794,-133579,-8388608,5273540,6029958,-1006749,-7320008,472327,1042027
795,-133432,-8388608,5273276,6029793,-1006595,-7319654,472212,1041669
796,-133238,-8388608,5273032,6029581,-1006496,-7318591,472102,1041192
797,-132943,-8388608,5272826,6029375,-1006369,-7317879,471973,1040696
798,-132593,-8388608,5272629,6029189,-1006316,-7317672,471835,1040198
799,-132424,-8388608,5272463,6029056,-1006271,-7317690,471774,1039989
800,-132415,-8388608,5272339,6028956,-1006191,-7317551,471744,1039979
801,-132596,-8388608,5272249,6028862,-1006129,-7317006,471796,1040263
802,-132971,-8388608,5272176,6028831,-1006069,-7315692,471930,1040869
803,-133353,-8388608,5272019,6028774,-1006011,-7314663,472083,1041424
804,-133736,-8388608,5271866,6028735,-1005977,-7313932,472237,1042031
805,-134098,-8388608,5271703,6028696,-1005959,-7313394,472379,1042681
806,-134262,-8388608,5271530,6028624,-1005941,-7312899,472396,1042824
807,-134337,-8388608,5271351,6028565,-1005934,-7311939,472335,1042733
808,-134429,-8388608,5271123,6028534,-1005969,-7310642,472258,1042714
809,-134512,-8388608,5270942,6028514,-1006014,-7309056,472203,1042756
810,-134605,-8388608,5270748,6028490,-1006057,-7307124,472131,1042706
811,-134561,-8388608,5270556,6028431,-1006107,-7305277,471941,1042339
812,-134357,-8388608,5270327,6028409,-1006186,-7304026,471776,1041943
813,-134158,-8388608,5270124,6028369,-1006252,-7303244,471601,1041350
814,-133876,-8388608,5269907,6028291,-1006356,-7302642,471417,1040750
815,-133647,-8388608,5269716,6028229,-1006490,-7302265,471299,1040332
816,-133539,-8388608,5269564,6028205,-1006604,-7301734,471201,1040128
817,-133618,-8388608,5269464,6028197,-1006705,-7301351,471179,1040201
818,-133922,-8388608,5269375,6028198,-1006777,-7300867,471274,1040684
819,-134306,-8388608,5269261,6028238,-1006859,-7300400,471394,1041279
820,-134671,-8388608,5269137,6028270,-1006951,-7300025,471481,1041744
821,-135049,-8388608,5269008,6028302,-1007067,-7299637,471591,1042258
822,-135409,-8388608,5268820,6028298,-1007227,-7299591,471781,1042917
823,-135529,-8388608,5268682,6028314,-1007362,-7299449,471833,1043080
824,-135620,-8388608,5268551,6028289,-1007472,-7298883,471728,1042928
825,-135737,-8388608,5268362,6028261,-1007631,-7298401,471719,1043001
826,-135774,-8388608,5268219,6028272,-1007782,-7298024,471696,1042959
827,-135769,-8388608,5268090,6028274,-1007917,-7297662,471599,1042724
828,-135659,-8388608,5267929,6028246,-1008125,-7297804,471586,1042571
829,-135467,-8388608,5267863,6028184,-1008292,-7297663,471420,1042088
830,-135200,-8388608,5267733,6028119,-1008437,-7297431,471166,1041495
831,-134854,-8388608,5267619,6028083,-1008659,-7297527,471105,1041165
832,-134557,-8388608,5267668,6028071,-1008865,-7297294,471063,1040883
833,-134444,-8388608,5267769,6028036,-1008999,-7296755,470998,1040761
834,-134519,-8388608,5267862,6028004,-1009073,-7295606,470863,1040660
835,-134869,-8388608,5267901,6027991,-1009096,-7293412,470714,1040911
836,-135255,-8388608,5267890,6027996,-1009203,-7292151,470875,1041667
837,-135541,-8388608,5268008,6028020,-1009312,-7291286,471104,1042346
838,-135869,-8388608,5268146,6028018,-1009391,-7290111,471283,1042954
839,-136106,-8388608,5268238,6027980,-1009440,-7289004,471373,1043321
840,-136177,-8388608,5268269,6027908,-1009502,-7287696,471378,1043408
841,-136186,-8388608,5268327,6027819,-1009547,-7285840,471390,1043464
842,-136202,-8388608,5268389,6027709,-1009486,-7284300,471361,1043502
843,-136215,-8388608,5268406,6027569,-1009447,-7283352,471302,1043571
844,-136119,-8388608,5268444,6027404,-1009394,-7282546,471233,1043377
845,-135865,-8388608,5268471,6027264,-1009354,-7280108,471131,1042913
846,-135575,-8388608,5268502,6027071,-1009331,-7275892,471028,1042476
847,-135318,-8388608,5268553,6026892,-1009305,-7272754,470909,1042098
848,-134974,-8388608,5268551,6026689,-1009249,-7270589,470840,1041618
849,-134719,-8388608,5268703,6026498,-1009171,-7268729,470804,1041388
850,-134626,-8388608,5268812,6026306,-1009019,-7266862,470809,1041369
851,-134706,-8388608,5268961,6026136,-1008883,-7265034,470909,1041711
852,-134961,-8388608,5269105,6025947,-1008673,-7261945,471112,1042295
853,-135285,-8388608,5269191,6025750,-1008484,-7259327,471297,1042842
854,-135644,-8388608,5269273,6025604,-1008241,-7257291,471486,1043411
855,-135974,-8388608,5269283,6025381,-1008021,-7255676,471708,1043988
856,-136087,-8388608,5269209,6025128,-1007831,-7254107,471776,1044234
857,-136116,-8388608,5269143,6024870,-1007620,-7252457,471848,1044305
858,-136110,-8388608,5269127,6024631,-1007426,-7251164,471921,1044369
859,-136063,-8388608,5269092,6024377,-1007200,-7249845,471982,1044334
860,-136051,-8388608,5268992,6024129,-1007018,-7247677,472006,1044286
861,-134626,-8388608,5268812,6026306,-1009019,-7266862,470809,1041369
862,-134706,-8388608,5268961,6026136,-1008883,-7265034,470909,1041711
863,-134961,-8388608,5269105,6025947,-1008673,-7261945,471112,1042295
864,-135285,-8388608,5269191,6025750,-1008484,-7259327,471297,1042842
865,-135644,-8388608,5269273,6025604,-1008241,-7257291,471486,1043411
866,-135974,-8388608,5269283,6025381,-1008021,-7255676,471708,1043988
867,-136087,-8388608,5269209,6025128,-1007831,-7254107,471776,1044234
868,-136116,-8388608,5269143,6024870,-1007620,-7252457,471848,1044305
869,-136110,-8388608,5269127,6024631,-1007426,-7251164,471921,1044369
870,-136063,-8388608,5269092,6024377,-1007200,-7249845,471982,1044334
871,-136051,-8388608,5268992,6024129,-1007018,-7247677,472006,1044286
872,-135929,-8388608,5268893,6023804,-1006846,-7245626,472004,1044131
873,-135697,-8388608,5268754,6023541,-1006663,-7244217,471941,1043764
874,-135464,-8388608,5268615,6023272,-1006477,-7243054,471846,1043285
875,-135141,-8388608,5268469,6022981,-1006324,-7242204,471787,1042774
876,-134769,-8388608,5268368,6022743,-1006187,-7241562,471732,1042255
877,-134619,-8388608,5268266,6022501,-1006009,-7241078,471738,1042066
878,-134604,-8388608,5268177,6022262,-1005806,-7240391,471783,1042079
879,-134841,-8388608,5268109,6022099,-1005609,-7239861,471956,1042555
880,-135199,-8388608,5268019,6021952,-1005429,-7239627,472138,1043209
881,-135545,-8388608,5267881,6021798,-1005230,-7239247,472253,1043727
882,-135902,-8388608,5267729,6021651,-1005052,-7238769,472426,1044249
883,-136214,-8388608,5267528,6021524,-1004888,-7238212,472550,1044639
884,-136324,-8388608,5267316,6021346,-1004743,-7237766,472613,1044769
885,-136397,-8388608,5267117,6021143,-1004629,-7237596,472711,1044798
886,-136463,-8388608,5266910,6020966,-1004529,-7237526,472799,1044843
887,-136546,-8388608,5266734,6020820,-1004456,-7237484,472808,1044956
888,-136483,-8388608,5266517,6020672,-1004396,-7237370,472799,1044840
889,-136412,-8388608,5266207,6020533,-1004361,-7237330,472711,1044572
890,-136260,-8388608,5265908,6020391,-1004299,-7237341,472590,1044131
891,-136029,-8388608,5265671,6020303,-1004267,-7237281,472493,1043664
892,-135684,-8388608,5265440,6020166,-1004265,-7237211,472343,1043082
893,-135459,-8388608,5265190,6020065,-1004268,-7237016,472215,1042658
894,-135442,-8388608,5265013,6019979,-1004246,-7236901,472198,1042549
895,-135536,-8388608,5264854,6019923,-1004214,-7236782,472252,1042681
896,-135881,-8388608,5264720,6019897,-1004157,-7236575,472325,1043208
897,-136293,-8388608,5264555,6019879,-1004144,-7236362,472422,1043814
898,-136662,-8388608,5264336,6019837,-1004139,-7236016,472563,1044396
899,-137071,-8388608,5264151,6019819,-1004144,-7235789,472723,1044974
900,-137306,-8388608,5263923,6019807,-1004164,-7235730,472818,1045417
901,-137409,-8388608,5263684,6019766,-1004197,-7235481,472859,1045605
902,-137484,-8388608,5263510,6019734,-1004261,-7235167,472899,1045646
903,-137585,-8388608,5263348,6019726,-1004341,-7235049,472919,1045758
904,-137666,-8388608,5263194,6019713,-1004377,-7234846,472869,1045779
905,-137609,-8388608,5262994,6019654,-1004417,-7234451,472712,1045436
906,-137440,-8388608,5262726,6019591,-1004484,-7234300,472533,1044959
907,-137284,-8388608,5262453,6019501,-1004546,-7234234,472406,1044578
908,-137081,-8388608,5262233,6019446,-1004689,-7234323,472284,1044143
909,-136756,-8388608,5262065,6019369,-1004812,-7234162,472057,1043519
910,-136557,-8388608,5261881,6019306,-1004909,-7233742,471848,1042979
911,-136552,-8388608,5261704,6019239,-1005009,-7233706,471807,1042920
912,-136785,-8388608,5261598,6019238,-1005080,-7233861,471908,1043333
913,-137179,-8388608,5261551,6019294,-1005186,-7233942,472138,1044189
914,-137495,-8388608,5261473,6019293,-1005265,-7233834,472258,1044668
915,-137876,-8388608,5261342,6019261,-1005287,-7233693,472344,1045124
916,-138271,-8388608,5261180,6019223,-1005305,-7233638,472428,1045619
917,-138447,-8388608,5261036,6019183,-1005316,-7233412,472341,1045639
918,-138502,-8388608,5260831,6019101,-1005375,-7233290,472281,1045563
919,-138580,-8388608,5260592,6019019,-1005502,-7233652,472375,1045803
920,-138627,-8388608,5260517,6019009,-1005587,-7234013,472451,1045914
921,-138645,-8388608,5260436,6018939,-1005620,-7233957,472340,1045695
922,-138592,-8388608,5260219,6018828,-1005645,-7233797,472109,1045244
923,-138384,-8388608,5260023,6018703,-1005729,-7233785,471921,1044754
924,-138181,-8388608,5259901,6018605,-1005842,-7233962,471816,1044467
925,-137892,-8388608,5259838,6018530,-1005974,-7234327,471751,1044048
926,-137574,-8388608,5259787,6018416,-1006062,-7234509,471629,1043378
927,-137439,-8388608,5259812,6018309,-1006164,-7234795,471563,1043239
928,-138447,-8388608,5261036,6019183,-1005316,-7233412,472341,1045639
929,-138502,-8388608,5260831,6019101,-1005375,-7233290,472281,1045563
930,-138580,-8388608,5260592,6019019,-1005502,-7233652,472375,1045803
931,-138627,-8388608,5260517,6019009,-1005587,-7234013,472451,1045914
932,-138645,-8388608,5260436,6018939,-1005620,-7233957,472340,1045695
933,-138592,-8388608,5260219,6018828,-1005645,-7233797,472109,1045244
934,-138384,-8388608,5260023,6018703,-1005729,-7233785,471921,1044754
935,-138181,-8388608,5259901,6018605,-1005842,-7233962,471816,1044467
936,-137892,-8388608,5259838,6018530,-1005974,-7234327,471751,1044048
937,-137574,-8388608,5259787,6018416,-1006062,-7234509,471629,1043378
938,-137439,-8388608,5259812,6018309,-1006164,-7234795,471563,1043239
939,-137409,-8388608,5259863,6018208,-1006188,-7234947,471583,1043276
940,-137632,-8388608,5259881,6018108,-1006145,-7234948,471668,1043661
941,-138006,-8388608,5259918,6018008,-1006130,-7235033,471834,1044353
942,-138248,-8388608,5260003,6017911,-1006121,-7235017,471898,1044761
943,-138567,-8388608,5260065,6017769,-1006077,-7234912,471932,1045126
944,-138872,-8388608,5260100,6017646,-1006037,-7234978,472008,1045576
945,-138959,-8388608,5260123,6017521,-1006042,-7235262,472115,1045906
946,-138964,-8388608,5260254,6017421,-1006037,-7235521,472189,1046043
947,-138949,-8388608,5260402,6017297,-1005969,-7235527,472141,1045974
948,-138889,-8388608,5260521,6017133,-1005881,-7235338,472023,1045770
949,-138814,-8388608,5260572,6016951,-1005811,-7235304,471952,1045689
950,-138603,-8388608,5260616,6016771,-1005738,-7235366,471824,1045331
951,-138299,-8388608,5260675,6016504,-1005630,-7235354,471655,1044831
952,-137990,-8388608,5260754,6016243,-1005504,-7235164,471488,1044300
953,-137632,-8388608,5260772,6015994,-1005402,-7235227,471318,1043737
954,-137291,-8388608,5260869,6015758,-1005286,-7235366,471265,1043379
955,-137083,-8388608,5261006,6015507,-1005109,-7235209,471276,1043234
956,-137137,-8388608,5261156,6015229,-1004901,-7234897,471323,1043362
957,-137451,-8388608,5261268,6015024,-1004703,-7234460,471497,1043956
958,-137762,-8388608,5261368,6014812,-1004480,-7233241,471667,1044582
959,-138084,-8388608,5261451,6014622,-1004237,-7231222,471796,1045118
960,-138346,-8388608,5261559,6014389,-1003962,-7229517,471931,1045562
961,-138540,-8388608,5261579,6014138,-1003702,-7228841,472042,1045936
962,-138577,-8388608,5261584,6013882,-1003504,-7228481,472064,1046023
963,-138576,-8388608,5261614,6013611,-1003287,-7227821,472104,1046053
964,-138526,-8388608,5261600,6013359,-1003050,-7227189,472108,1046026
965,-138527,-8388608,5261601,6013119,-1002813,-7226701,472109,1046019
966,-138459,-8388608,5261534,6012846,-1002602,-7226519,472116,1045876
967,-138269,-8388608,5261415,6012566,-1002380,-7226616,472037,1045498
968,-138053,-8388608,5261311,6012263,-1002176,-7226770,471993,1045114
969,-137773,-8388608,5261188,6011967,-1001992,-7226845,471937,1044677
970,-137417,-8388608,5261071,6011676,-1001821,-7226859,471833,1044053
971,-137132,-8388608,5260998,6011416,-1001598,-7226834,471738,1043635
972,-137115,-8388608,5260935,6011163,-1001366,-7226862,471734,1043544
973,-137289,-8388608,5260847,6010942,-1001155,-7226705,471853,1043834
974,-137648,-8388608,5260789,6010733,-1000884,-7226356,472044,1044458
975,-137951,-8388608,5260686,6010547,-1000652,-7226130,472203,1044949
976,-138252,-8388608,5260564,6010357,-1000411,-7225901,472364,1045449
977,-138572,-8388608,5260384,6010191,-1000197,-7225534,472547,1046000
978,-138733,-8388608,5260182,6010022,-1000041,-7225254,472706,1046333
979,-138833,-8388608,5260007,6009824,-999956,-7225052,472784,1046545
980,-138876,-8388608,5259836,6009680,-999889,-7225062,472854,1046618
981,-138917,-8388608,5259657,6009534,-999779,-7225194,472883,1046663
982,-138973,-8388608,5259455,6009412,-999652,-7225279,472876,1046690
983,-138870,-8388608,5259209,6009296,-999551,-7225347,472777,1046406
984,-138714,-8388608,5258911,6009165,-999507,-7225568,472698,1046036
985,-138566,-8388608,5258683,6009009,-999474,-7225831,472616,1045632
986,-138282,-8388608,5258476,6008873,-999424,-7226041,472472,1045066
987,-138003,-8388608,5258235,6008763,-999392,-7226093,472348,1044528
988,-137872,-8388608,5258032,6008681,-999334,-7225869,472297,1044344
989,-137867,-8388608,5257899,6008636,-999292,-7225513,472322,1044431
990,-138128,-8388608,5257766,6008598,-999228,-7225067,472411,1044833
991,-138491,-8388608,5257643,6008604,-999202,-7224631,472574,1045458
992,-138844,-8388608,5257473,6008628,-999177,-7224377,472731,1046044
993,-139224,-8388608,5257323,6008650,-999159,-7224097,472878,1046718
994,-139541,-8388608,5257196,6008649,-999137,-7223743,472974,1047181
995,-139664,-8388608,5257061,6008619,-999112,-7222790,472882,1047096
996,-139753,-8388608,5256818,6008618,-999169,-7222171,472804,1047065
997,-139854,-8388608,5256676,6008683,-999256,-7221891,472944,1047357
998,-139831,-8388608,5256620,6008699,-999307,-7220441,472908,1047357
999,-139801,-8388608,5256430,6008736,-999342,-7218829,472709,1047093
1000,-139680,-8388608,5256203,6008741,-999422,-7217862,472522,1046720
1001,-139513,-8388608,5255986,6008740,-999520,-7217501,472402,1046333
1002,-139269,-8388608,5255784,6008691,-999608,-7217351,472233,1045888
1003,-138904,-8388608,5255604,6008688,-999679,-7217011,471948,1045146
1004,-138645,-8388608,5255400,6008686,-999831,-7216570,471723,1044598
1005,-138572,-8388608,5255226,6008688,-1000032,-7216577,471672,1044520
1006,-138659,-8388608,5255108,6008744,-1000205,-7216528,471739,1044788
1007,-138961,-8388608,5255046,6008839,-1000346,-7216120,471889,1045362
1008,-139344,-8388608,5254985,6008950,-1000506,-7215801,471979,1045939
1009,-139662,-8388608,5254933,6008974,-1000618,-7215587,471998,1046328
1010,-139952,-8388608,5254826,6008984,-1000691,-7215247,471946,1046543
1011,-140188,-8388608,5254614,6009064,-1000819,-7215118,471917,1046728
1012,-140245,-8388608,5254446,6009149,-1000942,-7215271,471857,1046741
1013,-140288,-8388608,5254323,6009146,-1001072,-7215580,471886,1046898
1014,-140306,-8388608,5254227,6009157,-1001266,-7216076,472043,1047221
1015,-140286,-8388608,5254186,6009193,-1001400,-7216502,472138,1047400
1016,-140204,-8388608,5254134,6009165,-1001520,-7216636,471973,1047083
1017,-140032,-8388608,5253981,6009123,-1001686,-7216779,471823,1046684
1018,-139766,-8388608,5253836,6009068,-1001819,-7216976,471717,1046201
1019,-139489,-8388608,5253724,6008992,-1001936,-7217239,471634,1045726
1020,-139111,-8388608,5253629,6008901,-1002081,-7217468,471498,1045119
1021,-138849,-8388608,5253624,6008824,-1002201,-7217595,471455,1044733
1022,-138771,-8388608,5253603,6008715,-1002224,-7217324,471371,1044492
1023,-138915,-8388608,5253504,6008629,-1002188,-7217096,471360,1044623
1024,-139253,-8388608,5253436,6008586,-1002196,-7217172,471608,1045369
1025,-139555,-8388608,5253416,6008534,-1002223,-7217266,471826,1045946
1026,-139881,-8388608,5253381,6008476,-1002186,-7217260,471992,1046471
1027,-140212,-8388608,5253408,6008378,-1002144,-7217050,472123,1046927
1028,-140304,-8388608,5253390,6008279,-1002090,-7216675,472130,1046982
1029,-140276,-8388608,5253356,6008148,-1002043,-7216463,472086,1046866
1030,-140273,-8388608,5253335,6008026,-1002059,-7216540,472146,1047031
1031,-140284,-8388608,5253384,6007891,-1002031,-7216325,472231,1047179
1032,-140225,-8388608,5253436,6007725,-1001961,-7215911,472173,1047004
1033,-140052,-8388608,5253331,6007555,-1001903,-7215807,472126,1046851
1034,-139794,-8388608,5253320,6007304,-1001809,-7215707,471998,1046386
1035,-139472,-8388608,5253254,6007063,-1001734,-7215667,471787,1045734
1036,-139121,-8388608,5253191,6006824,-1001686,-7215977,471734,1045386
1037,-138490,-8388608,5253346,6006391,-1001561,-7215627,471609,1044539
1038,-138362,-8388608,5253456,6006203,-1001492,-7215066,471604,1044500
1039,-138521,-8388608,5253569,6006028,-1001390,-7214419,471662,1044805
1040,-138866,-8388608,5253677,6005913,-1001244,-7213706,471848,1045564
1041,-139091,-8388608,5253771,6005777,-1001106,-7212947,472025,1046218
1042,-139389,-8388608,5253843,6005589,-1000926,-7212129,472154,1046743
1043,-139613,-8388608,5253882,6005394,-1000715,-7211382,472218,1047107
1044,-139643,-8388608,5253878,6005160,-1000517,-7210473,472191,1047130
1045,-139638,-8388608,5253838,6004880,-1000307,-7209941,472247,1047149
1046,-139680,-8388608,5253804,6004658,-1000119,-7209512,472272,1047163
1047,-139648,-8388608,5253779,6004387,-999924,-7209216,472221,1047110
1048,-139599,-8388608,5253733,6004137,-999697,-7209110,472225,1047001
1049,-139481,-8388608,5253623,6003877,-999497,-7209141,472153,1046724
1050,-139207,-8388608,5253539,6003594,-999311,-7209316,472034,1046274
1051,-138925,-8388608,5253471,6003379,-999167,-7209536,471881,1045821
1052,-138553,-8388608,5253386,6003131,-999027,-7209685,471675,1045188
1053,-138191,-8388608,5253358,6002902,-998872,-7209757,471550,1044634
1054,-138067,-8388608,5253320,6002723,-998686,-7209559,471486,1044453
1055,-138082,-8388608,5253252,6002499,-998487,-7209177,471500,1044471
1056,-138277,-8388608,5253196,6002318,-998326,-7208722,471616,1044954
1057,-138674,-8388608,5253113,6002158,-998164,-7208407,471801,1045598
1058,-139040,-8388608,5252999,6002031,-997988,-7207636,471974,1046253
1059,-139341,-8388608,5252927,6001911,-997821,-7206104,472137,1046815
1060,-139529,-8388608,5252767,6001723,-997687,-7204466,472163,1047073
1061,-139558,-8388608,5252562,6001562,-997530,-7203321,472139,1047103
1062,-139616,-8388608,5252411,6001416,-997416,-7202714,472175,1047159
1063,-139689,-8388608,5252238,6001284,-997302,-7201934,472127,1047075
1064,-139709,-8388608,5252023,6001131,-997176,-7201306,471981,1046864
1065,-139651,-8388608,5251775,6000980,-997073,-7201074,471901,1046639
1066,-139504,-8388608,5251468,6000805,-996994,-7200612,471786,1046328
1067,-139279,-8388608,5251226,6000633,-996926,-7199741,471619,1045831
1068,-139022,-8388608,5250973,6000449,-996904,-7199119,471450,1045330
1069,-138672,-8388608,5250729,6000277,-996897,-7198516,471256,1044690
1070,-138479,-8388608,5250546,6000204,-996874,-7197699,471148,1044322
1071,-138407,-8388608,5250400,6000143,-996842,-7196364,471126,1044223
1072,-138512,-8388608,5250278,6000077,-996816,-7194590,471196,1044482
1073,-138835,-8388608,5250207,6000021,-996760,-7193197,471340,1045081
1074,-139173,-8388608,5250121,6000062,-996737,-7191674,471496,1045676
1075,-139482,-8388608,5250015,6000052,-996724,-7190327,471593,1046133
1076,-139859,-8388608,5249840,6000011,-996720,-7189072,471666,1046655
1077,-140003,-8388608,5249665,5999976,-996702,-7188176,471627,1046813
1078,-140039,-8388608,5249499,5999934,-996681,-7187504,471519,1046756
1079,-140079,-8388608,5249313,5999905,-996693,-7187107,471524,1046833
1080,-140117,-8388608,5249221,5999859,-996731,-7186959,471598,1046955
1081,-140115,-8388608,5249129,5999819,-996749,-7186971,471592,1046883
1082,-140026,-8388608,5248920,5999753,-996801,-7187114,471530,1046610
1083,-139837,-8388608,5248736,5999666,-996847,-7187321,471336,1046148
1084,-139641,-8388608,5248548,5999593,-996944,-7187537,471148,1045641
1085,-139326,-8388608,5248412,5999594,-997069,-7187632,470968,1045044
1086,-138957,-8388608,5248259,5999551,-997186,-7187680,470803,1044422
1087,-138840,-8388608,5248144,5999478,-997277,-7187306,470718,1044146
1088,-138837,-8388608,5248049,5999438,-997412,-7187044,470681,1044112
1089,-139054,-8388608,5247940,5999418,-997453,-7186729,470723,1044436
1090,-139384,-8388608,5247889,5999427,-997466,-7186437,470835,1045023
1091,-139694,-8388608,5247811,5999405,-997507,-7186293,470953,1045549
1092,-140002,-8388608,5247688,5999412,-997517,-7185862,470988,1045931
1093,-140308,-8388608,5247577,5999418,-997534,-7185307,471084,1046356
1094,-140447,-8388608,5247452,5999387,-997639,-7185197,471226,1046798
1095,-140477,-8388608,5247385,5999343,-997716,-7184932,471305,1046974
1096,-140517,-8388608,5247328,5999277,-997726,-7184331,471208,1046870
1097,-140547,-8388608,5247239,5999196,-997727,-7183752,471089,1046670
1098,-140535,-8388608,5247106,5999116,-997771,-7183409,470958,1046446
1099,-140379,-8388608,5246956,5999008,-997828,-7183367,470864,1046183
1100,-140154,-8388608,5246858,5998873,-997876,-7183412,470764,1045772
1101,-139844,-8388608,5246768,5998748,-997919,-7183531,470637,1045302
1102,-139490,-8388608,5246709,5998644,-997964,-7183741,470560,1044894
1103,-139126,-8388608,5246665,5998509,-998026,-7183709,470481,1044441
1104,-138959,-8388608,5246684,5998415,-998081,-7183211,470523,1044369
1105,-138945,-8388608,5246749,5998353,-998098,-7182917,470589,1044493
1106,-139160,-8388608,5246869,5998276,-998041,-7182089,470564,1044662
1107,-139473,-8388608,5246800,5998163,-997961,-7180773,470544,1044937
1108,-139784,-8388608,5246759,5998096,-997964,-7179637,470723,1045623
1109,-140104,-8388608,5246786,5998044,-997939,-7177735,470877,1046203
1110,-140312,-8388608,5246772,5997978,-997909,-7174611,470945,1046486
1111,-140330,-8388608,5246728,5997885,-997886,-7172605,470952,1046539
1112,-140346,-8388608,5246722,5997793,-997885,-7171659,470993,1046604
1113,-140327,-8388608,5246741,5997644,-997856,-7171452,471031,1046644
1114,-140306,-8388608,5246745,5997467,-997793,-7171169,470930,1046439
1115,-140226,-8388608,5246631,5997292,-997746,-7170217,470784,1046136
1116,-139966,-8388608,5246567,5997114,-997721,-7169197,470775,1045994
1117,-139715,-8388608,5246541,5996926,-997711,-7168592,470784,1045781
1118,-139444,-8388608,5246548,5996678,-997647,-7167839,470618,1045153
1119,-139022,-8388608,5246474,5996456,-997624,-7167128,470447,1044436
1120,-138737,-8388608,5246453,5996264,-997551,-7165900,470431,1044116
1121,-138667,-8388608,5246518,5996129,-997383,-7164447,470386,1043926
1122,-138724,-8388608,5246507,5995929,-997254,-7162952,470466,1044139
1123,-139004,-8388608,5246533,5995747,-997083,-7161137,470638,1044689
1124,-139257,-8388608,5246514,5995583,-996903,-7159098,470755,1045206
1125,-139562,-8388608,5246540,5995442,-996726,-7156807,470929,1045807
1126,-139871,-8388608,5246537,5995321,-996499,-7155061,471098,1046366
1127,-139977,-8388608,5246486,5995140,-996306,-7153909,471156,1046618
1128,-140032,-8388608,5246407,5994953,-996147,-7153672,471201,1046728
1129,-140026,-8388608,5246353,5994790,-995987,-7153538,471262,1046813
1130,-140033,-8388608,5246312,5994586,-995819,-7153290,471343,1046850
1131,-140002,-8388608,5246239,5994401,-995659,-7152764,471393,1046789
1132,-139906,-8388608,5246117,5994166,-995509,-7152334,471389,1046609
1133,-139653,-8388608,5245963,5993942,-995369,-7151943,471330,1046204
1134,-139400,-8388608,5245784,5993683,-995203,-7151627,471258,1045761
1135,-139123,-8388608,5245658,5993438,-995051,-7151135,471161,1045269
1136,-138722,-8388608,5245500,5993186,-994941,-7150635,471001,1044579
1137,-138484,-8388608,5245386,5992976,-994802,-7150468,470975,1044244
1138,-138427,-8388608,5245279,5992774,-994672,-7150286,470976,1044234
1139,-138611,-8388608,5245237,5992644,-994515,-7149914,471087,1044633
1140,-138957,-8388608,5245194,5992544,-994394,-7149372,471238,1045349
1141,-139201,-8388608,5245137,5992437,-994272,-7148898,471408,1045878
1142,-139496,-8388608,5245061,5992351,-994124,-7148360,471592,1046424
1143,-139782,-8388608,5244934,5992248,-993968,-7147876,471701,1046858
1144,-139929,-8388608,5244813,5992124,-993853,-7146863,471713,1046994
1145,-139943,-8388608,5244711,5992026,-993801,-7145273,471659,1047018
1146,-139952,-8388608,5244543,5991908,-993717,-7144481,471674,1047046
1147,-139954,-8388608,5244402,5991808,-993662,-7144132,471670,1047014
1148,-139884,-8388608,5244297,5991684,-993572,-7143256,471594,1046841
1149,-139721,-8388608,5244096,5991538,-993529,-7142917,471473,1046496
1150,-139437,-8388608,5243914,5991414,-993517,-7142986,471299,1046068
1151,-139157,-8388608,5243753,5991279,-993499,-7143158,471145,1045645
1152,-138814,-8388608,5243634,5991136,-993499,-7143160,470973,1045011
1153,-138428,-8388608,5243473,5991048,-993522,-7143010,470769,1044388
1154,-138225,-8388608,5243371,5991021,-993522,-7142494,470683,1044137
1155,-138249,-8388608,5243273,5990979,-993494,-7141447,470613,1044166
1156,-138516,-8388608,5243180,5990936,-993480,-7140377,470631,1044511
1157,-138922,-8388608,5243138,5990981,-993487,-7139632,470776,1045163
1158,-139220,-8388608,5243062,5991017,-993488,-7138991,470884,1045704
1159,-139554,-8388608,5242993,5991056,-993512,-7138560,471005,1046231
1160,-139766,-8388608,5242939,5991084,-993588,-7137937,471085,1046715
1161,-139789,-8388608,5242814,5991075,-993664,-7137037,471032,1046796
1162,-139807,-8388608,5242714,5991103,-993751,-7136041,470987,1046793
1163,-139157,-8388608,5243753,5991279,-993499,-7143158,471145,1045645
1164,-138814,-8388608,5243634,5991136,-993499,-7143160,470973,1045011
1165,-138428,-8388608,5243473,5991048,-993522,-7143010,470769,1044388
1166,-138225,-8388608,5243371,5991021,-993522,-7142494,470683,1044137
1167,-138249,-8388608,5243273,5990979,-993494,-7141447,470613,1044166
1168,-138516,-8388608,5243180,5990936,-993480,-7140377,470631,1044511
1169,-138922,-8388608,5243138,5990981,-993487,-7139632,470776,1045163
1170,-139220,-8388608,5243062,5991017,-993488,-7138991,470884,1045704
1171,-139554,-8388608,5242993,5991056,-993512,-7138560,471005,1046231
1172,-139766,-8388608,5242939,5991084,-993588,-7137937,471085,1046715
1173,-139789,-8388608,5242814,5991075,-993664,-7137037,471032,1046796
1174,-139807,-8388608,5242714,5991103,-993751,-7136041,470987,1046793
1175,-139816,-8388608,5242588,5991139,-993880,-7135083,470953,1046851
1176,-139776,-8388608,5242470,5991166,-993955,-7133752,470855,1046764
1177,-139721,-8388608,5242324,5991139,-994029,-7132666,470721,1046479
1178,-139555,-8388608,5242129,5991084,-994122,-7131516,470512,1045914
1179,-139328,-8388608,5241897,5991046,-994224,-7130669,470250,1045260
1180,-139092,-8388608,5241722,5991051,-994373,-7130304,470138,1044856
1181,-138707,-8388608,5241564,5990994,-994547,-7129707,470021,1044336
1182,-138445,-8388608,5241505,5990979,-994695,-7128859,469914,1043934
1183,-138337,-8388608,5241410,5990943,-994812,-7128045,469895,1043803
1184,-138384,-8388608,5241319,5990939,-994914,-7127149,469966,1044020
1185,-138646,-8388608,5241243,5990958,-994974,-7126459,470119,1044572
1186,-138959,-8388608,5241154,5990982,-995034,-7125709,470254,1045127
1187,-139299,-8388608,5241048,5991010,-995096,-7124649,470369,1045628
1188,-139627,-8388608,5240945,5991037,-995136,-7123926,470454,1046042
1189,-139821,-8388608,5240836,5991029,-995187,-7123554,470467,1046288
1190,-139831,-8388608,5240731,5990998,-995269,-7123595,470492,1046343
1191,-139879,-8388608,5240640,5990966,-995352,-7123542,470484,1046280
1192,-139900,-8388608,5240511,5990921,-995384,-7123153,470313,1045989
1193,-139927,-8388608,5240308,5990874,-995452,-7122887,470239,1045944
1194,-139814,-8388608,5240139,5990803,-995575,-7122514,470323,1045882
1195,-139632,-8388608,5240010,5990681,-995667,-7121557,470285,1045581
1196,-139356,-8388608,5239875,5990614,-995734,-7121145,470130,1045044
1197,-139041,-8388608,5239758,5990527,-995805,-7120936,469977,1044474
1198,-138705,-8388608,5239587,5990393,-995916,-7120780,469829,1043901
1199,-138482,-8388608,5239500,5990264,-995950,-7120281,469727,1043491
1200,-138382,-8388608,5239471,5990191,-995949,-7119492,469672,1043277
1201,-138532,-8388608,5239436,5990113,-995937,-7117847,469718,1043536
1202,-138889,-8388608,5239449,5990029,-995906,-7114813,469825,1044098
1203,-139204,-8388608,5239378,5989961,-995921,-7113429,469984,1044701
1204,-139521,-8388608,5239371,5989872,-995896,-7112969,470236,1045355
1205,-139782,-8388608,5239427,5989803,-995869,-7112812,470384,1045786
1206,-139859,-8388608,5239422,5989684,-995761,-7112501,470280,1045743
1207,-139904,-8388608,5239302,5989488,-995657,-7112261,470169,1045611
1208,-139922,-8388608,5239202,5989323,-995624,-7112293,470193,1045724
1209,-139909,-8388608,5239208,5989168,-995551,-7112219,470266,1045851
1210,-139899,-8388608,5239213,5988986,-995501,-7111983,470275,1045841
1211,-139703,-8388608,5239231,5988771,-995428,-7111249,470094,1045354
1212,-139459,-8388608,5239151,5988584,-995331,-7110809,469897,1044794
1213,-139216,-8388608,5239092,5988386,-995279,-7110744,469789,1044414
1214,-138851,-8388608,5239143,5988219,-995204,-7110862,469738,1043975
1215,-138449,-8388608,5239253,5987973,-995141,-7110792,469576,1043385
1216,-138228,-8388608,5239366,5987753,-995028,-7110441,469431,1042934
1217,-138220,-8388608,5239407,5987581,-994862,-7109844,469364,1042855
1218,-138486,-8388608,5239460,5987423,-994716,-7109331,469544,1043439
1219,-138814,-8388608,5239547,5987256,-994564,-7108973,469783,1044089
1220,-139101,-8388608,5239583,5987074,-994388,-7108153,469918,1044608
1221,-139417,-8388608,5239578,5986875,-994157,-7106972,470101,1045144
1222,-139691,-8388608,5239564,5986656,-993932,-7105893,470246,1045528
1223,-139759,-8388608,5239502,5986415,-993701,-7105037,470280,1045604
1224,-139794,-8388608,5239418,5986171,-993427,-7103602,470289,1045605
1225,-139761,-8388608,5239314,5985880,-993179,-7102122,470310,1045509
1226,-139754,-8388608,5239252,5985644,-992941,-7101443,470345,1045482
1227,-139704,-8388608,5239209,5985361,-992719,-7100580,470347,1045395
1228,-139517,-8388608,5239044,5985045,-992498,-7099398,470324,1045073
1229,-139231,-8388608,5238905,5984758,-992262,-7098312,470264,1044638
1230,-138937,-8388608,5238793,5984478,-992038,-7097675,470134,1044198
1231,-139101,-8388608,5239583,5987074,-994388,-7108153,469918,1044608
1232,-139417,-8388608,5239578,5986875,-994157,-7106972,470101,1045144
1233,-139691,-8388608,5239564,5986656,-993932,-7105893,470246,1045528
1234,-139759,-8388608,5239502,5986415,-993701,-7105037,470280,1045604
1235,-139794,-8388608,5239418,5986171,-993427,-7103602,470289,1045605
1236,-139761,-8388608,5239314,5985880,-993179,-7102122,470310,1045509
1237,-139754,-8388608,5239252,5985644,-992941,-7101443,470345,1045482
1238,-139704,-8388608,5239209,5985361,-992719,-7100580,470347,1045395
1239,-139517,-8388608,5239044,5985045,-992498,-7099398,470324,1045073
1240,-139231,-8388608,5238905,5984758,-992262,-7098312,470264,1044638
1241,-138937,-8388608,5238793,5984478,-992038,-7097675,470134,1044198
1242,-138554,-8388608,5238694,5984148,-991824,-7097054,470042,1043649
1243,-138277,-8388608,5238634,5983849,-991600,-7096312,469973,1043199
1244,-138166,-8388608,5238578,5983611,-991350,-7095592,469946,1043033
1245,-138229,-8388608,5238550,5983383,-991087,-7095134,470054,1043214
1246,-138531,-8388608,5238514,5983185,-990821,-7093992,470263,1043788
1247,-138890,-8388608,5238449,5983000,-990559,-7092609,470466,1044398
1248,-139211,-8388608,5238344,5982794,-990282,-7091677,470636,1044964
1249,-139520,-8388608,5238261,5982618,-990020,-7090716,470789,1045489
1250,-139736,-8388608,5238140,5982408,-989732,-7089387,470901,1045754
1251,-139760,-8388608,5237999,5982189,-989514,-7087344,470903,1045786
1252,-139820,-8388608,5237816,5981953,-989337,-7084804,470913,1045869
1253,-139844,-8388608,5237666,5981770,-989137,-7082406,470933,1045897
1254,-139829,-8388608,5237459,5981579,-988940,-7080861,470944,1045858
1255,-139768,-8388608,5237228,5981356,-988756,-7079548,470906,1045649
1256,-139592,-8388608,5236995,5981106,-988577,-7079081,470843,1045303
1257,-139307,-8388608,5236802,5980869,-988415,-7078730,470748,1044819
1258,-139023,-8388608,5236563,5980668,-988286,-7078122,470621,1044294
1259,-138707,-8388608,5236326,5980438,-988174,-7077691,470476,1043719
1260,-138526,-8388608,5236141,5980218,-988106,-7077251,470419,1043450
1261,-138469,-8388608,5235987,5980094,-988004,-7076712,470389,1043364
1262,-138650,-8388608,5235858,5980006,-987849,-7075861,470454,1043660
1263,-139056,-8388608,5235801,5979954,-987704,-7074565,470628,1044310
1264,-139419,-8388608,5235578,5979871,-987592,-7072917,470753,1044863
1265,-139779,-8388608,5235443,5979826,-987489,-7071532,470901,1045466
1266,-140080,-8388608,5235266,5979745,-987372,-7070495,470990,1045971
1267,-140229,-8388608,5235023,5979644,-987303,-7069482,471057,1046254
1268,-140274,-8388608,5234862,5979599,-987269,-7067907,471036,1046288
1269,-140329,-8388608,5234721,5979504,-987209,-7066214,470954,1046226
1270,-140399,-8388608,5234505,5979437,-987159,-7065029,470829,1046071
1271,-140387,-8388608,5234296,5979366,-987114,-7062714,470707,1045781
1272,-140276,-8388608,5234014,5979264,-987063,-7060116,470558,1045453
1273,-140143,-8388608,5233729,5979203,-987121,-7059398,470492,1045269
1274,-139945,-8388608,5233574,5979146,-987185,-7059032,470389,1044969
1275,-139606,-8388608,5233426,5979073,-987232,-7058394,470233,1044368
1276,-139311,-8388608,5233276,5978996,-987310,-7057751,470066,1043804
1277,-139202,-8388608,5233166,5978932,-987375,-7056822,469974,1043691
1278,-139238,-8388608,5233088,5978935,-987461,-7056171,469973,1043802
1279,-139474,-8388608,5233048,5978972,-987511,-7055457,470050,1044229
1280,-139848,-8388608,5233031,5979028,-987557,-7052872,470178,1044873
1281,-140151,-8388608,5232972,5979068,-987610,-7048693,470284,1045355
1282,-140499,-8388608,5232898,5979071,-987708,-7045086,470431,1046041
1283,-140795,-8388608,5232839,5979098,-987812,-7040810,470551,1046561
1284,-140877,-8388608,5232799,5979139,-987861,-7037786,470518,1046612
1285,-140946,-8388608,5232706,5979134,-987916,-7035012,470387,1046459
1286,-141021,-8388608,5232587,5979095,-987994,-7030754,470304,1046403
1287,-141044,-8388608,5232499,5979073,-988116,-7027464,470254,1046374
1288,-141013,-8388608,5232375,5979047,-988212,-7025680,470168,1046222
1289,-140918,-8388608,5232209,5978994,-988306,-7024485,470056,1046005
1290,-140742,-8388608,5232103,5978968,-988539,-7023900,470036,1045861
1291,-140471,-8388608,5232049,5978983,-988756,-7023455,470058,1045551
1292,-140111,-8388608,5232024,5978961,-988928,-7022277,469904,1044896
1293,-139820,-8388608,5232006,5978926,-989043,-7020529,469704,1044351
1294,-139763,-8388608,5231998,5978893,-989124,-7019451,469665,1044210
1295,-139816,-8388608,5232007,5978877,-989176,-7018753,469664,1044280
1296,-140152,-8388608,5232045,5978891,-989276,-7016956,469796,1044851
1297,-140453,-8388608,5232113,5978909,-989351,-7014758,469915,1045411
1298,-140723,-8388608,5232158,5978904,-989412,-7013472,470014,1045868
1299,-141079,-8388608,5232186,5978884,-989472,-7012586,470084,1046394
1300,-141335,-8388608,5232208,5978848,-989527,-7011716,470132,1046768
1301,-141357,-8388608,5232204,5978766,-989588,-7010541,470181,1046851
1302,-141328,-8388608,5232209,5978623,-989595,-7009532,470203,1046844
1303,-141326,-8388608,5232244,5978542,-989641,-7009017,470217,1046858
1304,-141350,-8388608,5232233,5978421,-989664,-7008744,470171,1046845
1305,-141255,-8388608,5232215,5978292,-989666,-7008566,470123,1046701
1306,-141021,-8388608,5232153,5978166,-989687,-7008449,470031,1046305
1307,-140726,-8388608,5232113,5978030,-989750,-7008111,469931,1045819
1308,-140401,-8388608,5232094,5977860,-989763,-7007931,469771,1045296
1309,-139974,-8388608,5232047,5977692,-989809,-7008200,469652,1044762
1310,-139749,-8388608,5232082,5977568,-989837,-7008375,469629,1044564
1311,-139664,-8388608,5232146,5977410,-989811,-7008265,469595,1044478
1312,-141079,-8388608,5232186,5978884,-989472,-7012586,470084,1046394
1313,-141335,-8388608,5232208,5978848,-989527,-7011716,470132,1046768
1314,-141357,-8388608,5232204,5978766,-989588,-7010541,470181,1046851
1315,-141328,-8388608,5232209,5978623,-989595,-7009532,470203,1046844
1316,-141326,-8388608,5232244,5978542,-989641,-7009017,470217,1046858
1317,-141350,-8388608,5232233,5978421,-989664,-7008744,470171,1046845
1318,-141255,-8388608,5232215,5978292,-989666,-7008566,470123,1046701
1319,-141021,-8388608,5232153,5978166,-989687,-7008449,470031,1046305
1320,-140726,-8388608,5232113,5978030,-989750,-7008111,469931,1045819
1321,-140401,-8388608,5232094,5977860,-989763,-7007931,469771,1045296
1322,-139974,-8388608,5232047,5977692,-989809,-7008200,469652,1044762
1323,-139749,-8388608,5232082,5977568,-989837,-7008375,469629,1044564
1324,-139664,-8388608,5232146,5977410,-989811,-7008265,469595,1044478
1325,-139814,-8388608,5232212,5977291,-989768,-7007899,469627,1044674
1326,-140139,-8388608,5232256,5977200,-989710,-7007596,469756,1045316
1327,-140431,-8388608,5232234,5977099,-989621,-7007412,469911,1045882
1328,-140759,-8388608,5232218,5976992,-989517,-7007187,470068,1046416
1329,-141042,-8388608,5232174,5976842,-989409,-7006789,470208,1046847
1330,-141141,-8388608,5232121,5976689,-989306,-7006488,470246,1046976
1331,-141128,-8388608,5232036,5976504,-989251,-7006250,470246,1046986
1332,-141170,-8388608,5231936,5976323,-989165,-7006049,470311,1047096
1333,-141219,-8388608,5231845,5976138,-989026,-7005899,470339,1047121
1334,-141217,-8388608,5231746,5975935,-988932,-7005504,470360,1047063
1335,-141087,-8388608,5231560,5975719,-988814,-7004556,470299,1046781
1336,-140886,-8388608,5231398,5975497,-988684,-7003811,470201,1046369
1337,-140611,-8388608,5231249,5975264,-988576,-7003591,470109,1045923
1338,-140251,-8388608,5231078,5975028,-988462,-7003537,469993,1045336
1339,-139881,-8388608,5230916,5974783,-988356,-7003417,469879,1044809
1340,-139726,-8388608,5230813,5974571,-988246,-7003041,469876,1044629
1341,-139711,-8388608,5230735,5974388,-988134,-7001909,469934,1044671
1342,-139923,-8388608,5230674,5974223,-987987,-7000516,470014,1045073
1343,-140280,-8388608,5230532,5974082,-987833,-6999416,470165,1045634
1344,-140624,-8388608,5230384,5973859,-987686,-6998428,470304,1046128
1345,-141012,-8388608,5230254,5973662,-987509,-6997775,470477,1046687
1346,-141294,-8388608,5230142,5973565,-987345,-6997414,470607,1047153
1347,-141384,-8388608,5229961,5973415,-987224,-6996878,470621,1047206
1348,-141444,-8388608,5229754,5973263,-987132,-6996381,470633,1047257
1349,-141502,-8388608,5229537,5973124,-987044,-6995921,470663,1047348
1350,-141527,-8388608,5229357,5972940,-986953,-6995271,470672,1047354
1351,-141541,-8388608,5229148,5972766,-986875,-6994692,470703,1047358
1352,-141412,-8388608,5228887,5972608,-986797,-6994468,470636,1047092
1353,-141217,-8388608,5228693,5972432,-986731,-6994437,470526,1046673
1354,-140938,-8388608,5228519,5972252,-986662,-6994371,470332,1046104
1355,-140569,-8388608,5228288,5972078,-986627,-6994322,470133,1045339
1356,-140357,-8388608,5228039,5971899,-986560,-6994332,470013,1044897
1357,-140272,-8388608,5227939,5971765,-986484,-6993960,469968,1044699
1358,-140364,-8388608,5227818,5971684,-986435,-6993232,470060,1044976
1359,-140686,-8388608,5227730,5971598,-986380,-6992702,470250,1045688
1360,-141054,-8388608,5227651,5971501,-986289,-6992523,470434,1046323
1361,-141409,-8388608,5227551,5971449,-986214,-6992106,470493,1046741
1362,-141753,-8388608,5227369,5971391,-986119,-6991566,470501,1047061
1363,-141979,-8388608,5227183,5971344,-986051,-6990891,470523,1047258
1364,-142101,-8388608,5226954,5971242,-985991,-6990296,470487,1047266
1365,-142215,-8388608,5226750,5971149,-985999,-6990056,470525,1047407
1366,-142280,-8388608,5226604,5971063,-986014,-6990001,470597,1047602
1367,-142270,-8388608,5226488,5970999,-985988,-6989803,470585,1047499
1368,-142182,-8388608,5226275,5970931,-985932,-6989508,470361,1047081
1369,-142017,-8388608,5226073,5970832,-985973,-6989408,470193,1046714
1370,-141807,-8388608,5225900,5970743,-986076,-6989419,470086,1046469
1371,-141549,-8388608,5225779,5970676,-986171,-6989141,469984,1046058
1372,-141148,-8388608,5225709,5970654,-986242,-6988727,469789,1045354
1373,-140947,-8388608,5225616,5970575,-986272,-6988624,469656,1044979
1374,-140872,-8388608,5225563,5970504,-986314,-6988235,469526,1044772
1375,-141004,-8388608,5225481,5970501,-986301,-6987806,469535,1044961
1376,-141413,-8388608,5225388,5970505,-986331,-6987217,469793,1045868
1377,-141696,-8388608,5225428,5970512,-986345,-6986313,469977,1046526
1378,-142065,-8388608,5225436,5970477,-986270,-6985701,469991,1046871
1379,-142382,-8388608,5225335,5970446,-986257,-6985423,470078,1047319
1380,-142460,-8388608,5225308,5970422,-986258,-6984887,470048,1047399
1381,-142461,-8388608,5225228,5970362,-986236,-6983824,469918,1047250
1382,-142502,-8388608,5225130,5970294,-986275,-6983363,469878,1047323
1383,-142537,-8388608,5225086,5970270,-986337,-6983355,469936,1047488
1384,-142507,-8388608,5225009,5970198,-986381,-6983304,469968,1047475
1385,-142389,-8388608,5224950,5970098,-986423,-6983052,469929,1047314
1386,-142161,-8388608,5224919,5969999,-986439,-6982788,469779,1046849
1387,-141915,-8388608,5224813,5969864,-986462,-6982526,469593,1046328
1388,-141552,-8388608,5224683,5969642,-986460,-6982524,469452,1045739
1389,-141178,-8388608,5224629,5969468,-986452,-6982517,469317,1045178
1390,-140976,-8388608,5224609,5969325,-986414,-6982161,469156,1044716
1391,-140971,-8388608,5224585,5969224,-986394,-6981861,469204,1044849
1392,-141147,-8388608,5224716,5969171,-986364,-6981548,469406,1045393
1393,-141418,-8388608,5224834,5969104,-986266,-6981138,469469,1045793
1394,-141692,-8388608,5224819,5968991,-986166,-6980664,469438,1046020
1395,-142016,-8388608,5224705,5968868,-986088,-6980356,469518,1046519
1396,-142276,-8388608,5224715,5968731,-986052,-6979917,469632,1047012
1397,-142298,-8388608,5224766,5968591,-985976,-6979173,469577,1047041
1398,-142316,-8388608,5224748,5968446,-985937,-6978367,469586,1047131
1399,-142255,-8388608,5224785,5968277,-985913,-6977376,469574,1047079
1400,-142182,-8388608,5224745,5968126,-985901,-6977095,469538,1047014
1401,-142090,-8388608,5224708,5967966,-985846,-6976568,469518,1046924
1402,-141920,-8388608,5224693,5967791,-985753,-6975594,469426,1046686
1403,-141639,-8388608,5224659,5967594,-985686,-6974939,469285,1046246
1404,-141292,-8388608,5224659,5967380,-985622,-6974587,469192,1045712
1405,-140855,-8388608,5224699,5967164,-985582,-6974231,469064,1045080
1406,-140454,-8388608,5224748,5966965,-985519,-6974042,468958,1044599
1407,-140237,-8388608,5224783,5966753,-985412,-6973534,468914,1044350
1408,-140194,-8388608,5224833,5966541,-985300,-6972806,468910,1044346
1409,-140455,-8388608,5224843,5966386,-985130,-6971662,469026,1044842
1410,-140752,-8388608,5224756,5966198,-984959,-6970121,469196,1045463
1411,-141019,-8388608,5224751,5966047,-984801,-6969244,469358,1046038
1412,-141311,-8388608,5224744,5965834,-984634,-6968851,469491,1046521
1413,-141486,-8388608,5224733,5965651,-984474,-6968433,469589,1046822
1414,-141456,-8388608,5224696,5965458,-984296,-6967947,469626,1046798
1415,-141411,-8388608,5224663,5965253,-984135,-6966936,469670,1046788
1416,-141409,-8388608,5224609,5965038,-983997,-6966122,469693,1046800
1417,-141388,-8388608,5224550,5964842,-983816,-6965038,469676,1046801
1418,-141288,-8388608,5224514,5964683,-983661,-6963401,469641,1046662
1419,-141058,-8388608,5224398,5964417,-983502,-6962525,469541,1046268
1420,-140817,-8388608,5224241,5964104,-983351,-6962496,469478,1045872
1421,-140507,-8388608,5224114,5963828,-983206,-6962449,469351,1045364
1422,-140094,-8388608,5223976,5963559,-983067,-6962065,469203,1044648
1423,-139894,-8388608,5223835,5963351,-982897,-6961861,469167,1044263
1424,-139792,-8388608,5223726,5963179,-982756,-6961638,469193,1044174
1425,-139916,-8388608,5223644,5962974,-982569,-6960977,469339,1044486
1426,-140290,-8388608,5223601,5962837,-982349,-6959953,469556,1045149
1427,-140587,-8388608,5223474,5962691,-982121,-6958920,469676,1045721
1428,-140864,-8388608,5223325,5962537,-981937,-6958226,469788,1046216
1429,-141170,-8388608,5223232,5962428,-981741,-6957044,469884,1046647
1430,-141331,-8388608,5223029,5962254,-981564,-6956122,469903,1046811
1431,-141287,-8388608,5222833,5962101,-981449,-6955448,469874,1046773
1432,-141338,-8388608,5222665,5961977,-981349,-6954403,469874,1046777
1433,-141372,-8388608,5222467,5961820,-981222,-6953201,469901,1046832
1434,-141367,-8388608,5222308,5961727,-981157,-6952027,469933,1046901
1435,-141291,-8388608,5222114,5961553,-981074,-6951376,469921,1046787
1436,-141081,-8388608,5221983,5961436,-981027,-6950599,469880,1046424
1437,-140822,-8388608,5221822,5961318,-980997,-6949059,469790,1046071
1438,-140494,-8388608,5221610,5961144,-980987,-6947827,469627,1045511
1439,-140108,-8388608,5221406,5961021,-980984,-6947180,469405,1044857
1440,-139911,-8388608,5221251,5960903,-980946,-6946561,469321,1044526
1441,-139917,-8388608,5221154,5960901,-980946,-6946275,469331,1044567
1442,-140128,-8388608,5221064,5960879,-980924,-6945627,469438,1044973
1443,-140463,-8388608,5220992,5960876,-980896,-6944767,469523,1045507
1444,-140791,-8388608,5220881,5960884,-980854,-6944126,469587,1045966
1445,-141107,-8388608,5220730,5960874,-980829,-6943679,469694,1046525
1446,-141365,-8388608,5220595,5960874,-980824,-6943141,469768,1046999
1447,-141412,-8388608,5220401,5960825,-980816,-6942491,469746,1047038
1448,-141462,-8388608,5220251,5960812,-980836,-6941928,469720,1047007
1449,-141535,-8388608,5220073,5960763,-980904,-6941226,469703,1047038
1450,-141522,-8388608,5219938,5960718,-980926,-6940339,469663,1047039
1451,-141506,-8388608,5219784,5960697,-980983,-6938896,469578,1046954
1452,-141310,-8388608,5219648,5960688,-981082,-6937958,469410,1046573
1453,-141082,-8388608,5219473,5960664,-981204,-6937333,469234,1046127
1454,-140782,-8388608,5219274,5960583,-981336,-6936962,469041,1045538
1455,-140402,-8388608,5219082,5960532,-981456,-6936962,468814,1044880
1456,-140101,-8388608,5218936,5960526,-981577,-6937012,468593,1044389
1457,-139944,-8388608,5218854,5960559,-981696,-6936918,468508,1044156
1458,-139953,-8388608,5218784,5960590,-981841,-6936876,468563,1044303
1459,-140201,-8388608,5218750,5960639,-981932,-6936576,468702,1044884
1460,-140523,-8388608,5218684,5960677,-982015,-6936243,468837,1045447
1461,-140842,-8388608,5218606,5960679,-982077,-6936048,468898,1045859
1462,-141119,-8388608,5218456,5960669,-982084,-6935691,468837,1046023
1463,-141303,-8388608,5218245,5960586,-982144,-6935629,468782,1046256
1464,-141349,-8388608,5218109,5960533,-982294,-6935826,468821,1046378
1465,-141375,-8388608,5218031,5960525,-982441,-6935689,468807,1046390
1466,-141380,-8388608,5217923,5960483,-982538,-6935518,468683,1046186
1467,-141366,-8388608,5217751,5960431,-982655,-6935586,468556,1046027
1468,-141276,-8388608,5217577,5960368,-982806,-6935772,468418,1045778
1469,-141045,-8388608,5217393,5960283,-982904,-6935679,468186,1045159
1470,-140811,-8388608,5217239,5960176,-983043,-6935619,467969,1044645
1471,-140494,-8388608,5217078,5960106,-983196,-6935847,467781,1044089
1472,-140091,-8388608,5216936,5960041,-983420,-6936493,467685,1043639
1473,-139794,-8388608,5216913,5959969,-983557,-6936961,467595,1043231
1474,-139681,-8388608,5216899,5959910,-983644,-6937195,467561,1043063
1475,-139745,-8388608,5216934,5959901,-983702,-6937198,467500,1043136
1476,-140047,-8388608,5216956,5959852,-983697,-6936947,467515,1043524
1477,-140371,-8388608,5216949,5959848,-983750,-6936842,467618,1044069
1478,-140696,-8388608,5216954,5959827,-983806,-6936885,467784,1044773
1479,-140956,-8388608,5216992,5959752,-983824,-6936929,467958,1045378
1480,-141047,-8388608,5217027,5959651,-983841,-6937023,468018,1045568
1481,-141041,-8388608,5217045,5959572,-983834,-6937249,468033,1045644
1482,-140992,-8388608,5217080,5959455,-983776,-6937271,467989,1045546
1483,-140960,-8388608,5217084,5959258,-983659,-6937057,467854,1045210
1484,-140953,-8388608,5217058,5959136,-983566,-6937020,467724,1044994
1485,-140819,-8388608,5216998,5958984,-983534,-6937306,467720,1044968
1486,-140607,-8388608,5216986,5958796,-983527,-6937701,467650,1044728
1487,-140287,-8388608,5217029,5958583,-983453,-6938188,467575,1044316
1488,-139911,-8388608,5217038,5958359,-983357,-6938746,467455,1043779
1489,-139502,-8388608,5217068,5958141,-983261,-6939204,467301,1043144
1490,-139266,-8388608,5217166,5957865,-983116,-6939371,467193,1042733
1491,-139242,-8388608,5217246,5957637,-982949,-6939520,467184,1042699
1492,-139364,-8388608,5217274,5957409,-982762,-6939636,467305,1043019
1493,-139679,-8388608,5217345,5957186,-982544,-6939558,467489,1043632
1494,-139985,-8388608,5217376,5956933,-982317,-6939538,467619,1044118
1495,-140330,-8388608,5217399,5956745,-982064,-6939550,467800,1044712
1496,-140537,-8388608,5217423,5956534,-981802,-6939447,467949,1045143
1497,-140553,-8388608,5217418,5956318,-981554,-6939447,468028,1045198
1498,-140526,-8388608,5217408,5956068,-981361,-6939426,468063,1045181
1499,-140534,-8388608,5217381,5955788,-981151,-6939356,468046,1045246
1500,-140529,-8388608,5217348,5955532,-980922,-6939237,468038,1045226
1501,-140524,-8388608,5217269,5955249,-980682,-6939135,468106,1045186
1502,-140372,-8388608,5217143,5954958,-980444,-6939127,468084,1044930
1503,-140111,-8388608,5217043,5954616,-980251,-6939134,468043,1044562
1504,-139817,-8388608,5216936,5954337,-980053,-6938769,467957,1044114
1505,-139402,-8388608,5216821,5954041,-979842,-6938331,467848,1043439
1506,-139065,-8388608,5216793,5953753,-979663,-6938015,467793,1042894
1507,-138912,-8388608,5216735,5953448,-979444,-6937760,467772,1042660
1508,-138932,-8388608,5216676,5953198,-979228,-6937446,467873,1042811
1509,-139183,-8388608,5216651,5952968,-979021,-6937126,468069,1043304
1510,-139507,-8388608,5216611,5952736,-978774,-6936932,468248,1043848
1511,-139840,-8388608,5216488,5952513,-978505,-6936721,468427,1044358
1512,-140190,-8388608,5216349,5952334,-978246,-6936333,468623,1044913
1513,-140396,-8388608,5216176,5952156,-978016,-6935694,468727,1045239
1514,-140402,-8388608,5215942,5951901,-977827,-6935178,468731,1045221
1515,-140456,-8388608,5215689,5951651,-977641,-6934926,468741,1045233
1516,-140490,-8388608,5215481,5951413,-977471,-6934586,468817,1045285
1517,-140484,-8388608,5215278,5951197,-977294,-6934379,468854,1045285
1518,-140441,-8388608,5215074,5950978,-977122,-6934286,468842,1045134
1519,-140295,-8388608,5214794,5950733,-976996,-6934214,468774,1044790
1520,-140101,-8388608,5214534,5950528,-976876,-6934271,468658,1044373
1521,-139823,-8388608,5214284,5950321,-976771,-6934269,468503,1043844
1522,-139433,-8388608,5214012,5950113,-976691,-6934121,468313,1043122
1523,-139214,-8388608,5213784,5949962,-976614,-6934084,468233,1042714
1524,-139168,-8388608,5213588,5949816,-976553,-6934012,468217,1042608
1525,-139277,-8388608,5213468,5949685,-976447,-6933864,468260,1042841
1526,-139600,-8388608,5213360,5949609,-976316,-6933548,468398,1043449
1527,-139967,-8388608,5213171,5949593,-976206,-6933140,468511,1043921
1528,-140484,-8388608,5215278,5951197,-977294,-6934379,468854,1045285
1529,-140441,-8388608,5215074,5950978,-977122,-6934286,468842,1045134
1530,-140295,-8388608,5214794,5950733,-976996,-6934214,468774,1044790
1531,-140101,-8388608,5214534,5950528,-976876,-6934271,468658,1044373
1532,-139823,-8388608,5214284,5950321,-976771,-6934269,468503,1043844
1533,-139433,-8388608,5214012,5950113,-976691,-6934121,468313,1043122
1534,-139214,-8388608,5213784,5949962,-976614,-6934084,468233,1042714
1535,-139168,-8388608,5213588,5949816,-976553,-6934012,468217,1042608
1536,-139277,-8388608,5213468,5949685,-976447,-6933864,468260,1042841
1537,-139600,-8388608,5213360,5949609,-976316,-6933548,468398,1043449
1538,-139967,-8388608,5213171,5949593,-976206,-6933140,468511,1043921
1539,-140291,-8388608,5212979,5949548,-976086,-6932434,468560,1044410
1540,-140602,-8388608,5212835,5949478,-975974,-6931439,468641,1044929
1541,-140781,-8388608,5212654,5949399,-975922,-6930323,468681,1045172
1542,-140852,-8388608,5212481,5949311,-975886,-6929642,468605,1045114
1543,-140944,-8388608,5212326,5949239,-975841,-6929216,468561,1045098
1544,-140982,-8388608,5212187,5949168,-975806,-6928461,468486,1045108
1545,-140991,-8388608,5212038,5949136,-975806,-6927552,468438,1045115
1546,-140881,-8388608,5211875,5949069,-975836,-6927075,468359,1044924
1547,-140664,-8388608,5211703,5948988,-975858,-6926442,468189,1044524
1548,-140413,-8388608,5211593,5948939,-975929,-6926095,468011,1044152
1549,-140099,-8388608,5211466,5948896,-976018,-6926089,467799,1043614
1550,-139741,-8388608,5211332,5948837,-976094,-6926132,467587,1043002
1551,-139530,-8388608,5211263,5948774,-976171,-6926239,467488,1042714
1552,-139492,-8388608,5211218,5948754,-976239,-6926032,467473,1042701
1553,-139652,-8388608,5211229,5948761,-976318,-6925226,467609,1043153
1554,-139961,-8388608,5211269,5948839,-976387,-6924254,467811,1043908
1555,-140289,-8388608,5211275,5948877,-976395,-6922888,467845,1044275
1556,-140637,-8388608,5211138,5948901,-976397,-6921311,467819,1044708
1557,-140884,-8388608,5211004,5948893,-976489,-6919961,467902,1045124
1558,-141014,-8388608,5210938,5948902,-976542,-6918122,467849,1045138
1559,-141065,-8388608,5210831,5948867,-976589,-6916297,467686,1044941
1560,-141077,-8388608,5210699,5948871,-976678,-6915612,467618,1044956
1561,-141056,-8388608,5210598,5948863,-976792,-6915211,467619,1044964
1562,-141056,-8388608,5210517,5948854,-976877,-6914761,467579,1044914
1563,-140936,-8388608,5210424,5948834,-976957,-6914322,467453,1044674
1564,-140695,-8388608,5210334,5948798,-977104,-6913872,467409,1044434
1565,-140431,-8388608,5210306,5948762,-977234,-6913582,467366,1044145
1566,-140022,-8388608,5210297,5948665,-977374,-6913321,467223,1043523
1567,-139684,-8388608,5210273,5948590,-977486,-6912894,467009,1042901
1568,-139586,-8388608,5210232,5948549,-977531,-6912460,466908,1042594
1569,-139631,-8388608,5210187,5948491,-977584,-6912242,466914,1042649
1570,-139911,-8388608,5210231,5948494,-977621,-6911718,467108,1043238
1571,-140259,-8388608,5210239,5948488,-977642,-6910799,467247,1043759
1572,-140584,-8388608,5210227,5948452,-977667,-6909601,467336,1044256
1573,-141125,-8388608,5210227,5948399,-977684,-6905642,467544,1045114
1574,-141056,-8388608,5210517,5948854,-976877,-6914761,467579,1044914
1575,-140936,-8388608,5210424,5948834,-976957,-6914322,467453,1044674
1576,-140695,-8388608,5210334,5948798,-977104,-6913872,467409,1044434
1577,-140431,-8388608,5210306,5948762,-977234,-6913582,467366,1044145
1578,-140022,-8388608,5210297,5948665,-977374,-6913321,467223,1043523
1579,-139684,-8388608,5210273,5948590,-977486,-6912894,467009,1042901
1580,-139586,-8388608,5210232,5948549,-977531,-6912460,466908,1042594
1581,-139631,-8388608,5210187,5948491,-977584,-6912242,466914,1042649
1582,-139911,-8388608,5210231,5948494,-977621,-6911718,467108,1043238
1583,-140259,-8388608,5210239,5948488,-977642,-6910799,467247,1043759
1584,-140584,-8388608,5210227,5948452,-977667,-6909601,467336,1044256
1585,-141125,-8388608,5210227,5948399,-977684,-6905642,467544,1045114
1586,-141155,-8388608,5210216,5948298,-977679,-6901923,467494,1045031
1587,-141184,-8388608,5210153,5948211,-977612,-6899857,467378,1044909
1588,-141201,-8388608,5210068,5948125,-977607,-6898174,467270,1044759
1589,-141196,-8388608,5210025,5947984,-977611,-6896539,467400,1045019
1590,-141114,-8388608,5210045,5947878,-977639,-6895032,467514,1045117
1591,-140909,-8388608,5210091,5947769,-977627,-6894590,467486,1044843
1592,-140639,-8388608,5210106,5947618,-977581,-6894041,467321,1044321
1593,-140386,-8388608,5210041,5947429,-977539,-6893539,467231,1043858
1594,-140013,-8388608,5210025,5947249,-977481,-6892141,467006,1043098
1595,-139777,-8388608,5209973,5947065,-977400,-6890198,466865,1042664
1596,-139709,-8388608,5209929,5946908,-977342,-6889302,466941,1042802
1597,-139791,-8388608,5209990,5946753,-977204,-6889019,467107,1043145
1598,-140052,-8388608,5210071,5946653,-977079,-6888726,467247,1043623
1599,-140336,-8388608,5210044,5946511,-976916,-6888482,467334,1044065
1600,-140626,-8388608,5210009,5946355,-976781,-6887994,467504,1044609
1601,-140913,-8388608,5209993,5946193,-976571,-6887185,467640,1045173
1602,-141069,-8388608,5209964,5946054,-976375,-6886797,467702,1045424
1603,-141104,-8388608,5209913,5945849,-976235,-6886641,467698,1045483
1604,-141164,-8388608,5209799,5945614,-976054,-6886411,467712,1045533
1605,-141162,-8388608,5209652,5945394,-975884,-6886009,467744,1045579
1606,-141169,-8388608,5209551,5945124,-975704,-6885649,467773,1045558
1607,-141066,-8388608,5209399,5944805,-975521,-6885357,467788,1045304
1608,-140867,-8388608,5209191,5944534,-975353,-6885397,467738,1044984
1609,-140627,-8388608,5209033,5944246,-975213,-6885452,467638,1044569
1610,-140291,-8388608,5208885,5943940,-975081,-6884990,467559,1044020
1611,-139890,-8388608,5208734,5943664,-974956,-6884136,467432,1043381
1612,-139701,-8388608,5208596,5943413,-974823,-6883592,467408,1043104
1613,-139656,-8388608,5208478,5943211,-974681,-6883187,467440,1043085
1614,-139856,-8388608,5208399,5943021,-974558,-6882621,467584,1043436
1615,-140191,-8388608,5208336,5942844,-974371,-6881768,467753,1043939
1616,-140512,-8388608,5208194,5942648,-974182,-6881273,467860,1044396
1617,-140826,-8388608,5207999,5942449,-973982,-6880920,467996,1044888
1618,-141142,-8388608,5207805,5942304,-973815,-6880621,468129,1045397
1619,-141251,-8388608,5207571,5942103,-973688,-6880391,468224,1045551
1620,-141291,-8388608,5207364,5941860,-973555,-6879891,468250,1045533
1621,-141312,-8388608,5207133,5941613,-973429,-6879547,468258,1045536
1622,-141339,-8388608,5206862,5941381,-973271,-6879534,468261,1045531
1623,-141383,-8388608,5206661,5941209,-973160,-6879496,468291,1045532
1624,-141258,-8388608,5206434,5941024,-973045,-6879429,468261,1045254
1625,-141064,-8388608,5206178,5940777,-972927,-6879092,468221,1044881
1626,-140815,-8388608,5205920,5940588,-972846,-6878716,468092,1044432
1627,-140480,-8388608,5205673,5940389,-972767,-6878562,467931,1043797
1628,-140182,-8388608,5205438,5940168,-972718,-6878447,467838,1043306
1629,-140036,-8388608,5205274,5939993,-972687,-6878516,467823,1043198
1630,-140088,-8388608,5205118,5939894,-972589,-6878665,467849,1043366
1631,-140361,-8388608,5205036,5939793,-972496,-6878652,467990,1043869
1632,-140748,-8388608,5204923,5939756,-972386,-6878532,468113,1044404
1633,-141052,-8388608,5204785,5939691,-972318,-6878179,468176,1044840
1634,-141413,-8388608,5204628,5939578,-972265,-6877690,468281,1045431
1635,-141686,-8388608,5204495,5939513,-972232,-6877475,468385,1045854
1636,-141762,-8388608,5204341,5939466,-972189,-6877262,468389,1045986
1637,-141808,-8388608,5204183,5939375,-972156,-6877154,468343,1046078
1638,-141850,-8388608,5204048,5939306,-972143,-6877250,468320,1046103
1639,-141916,-8388608,5203914,5939243,-972151,-6877315,468288,1046114
1640,-141864,-8388608,5203744,5939173,-972168,-6877279,468256,1046033
1641,-141742,-8388608,5203572,5939093,-972224,-6877554,468173,1045831
1642,-141552,-8388608,5203431,5939037,-972282,-6877991,468043,1045476
1643,-141274,-8388608,5203271,5938981,-972339,-6878266,467853,1044954
1644,-140932,-8388608,5203158,5938899,-972363,-6878283,467548,1044214
1645,-140677,-8388608,5203046,5938803,-972419,-6878156,467359,1043688
1646,-140576,-8388608,5202943,5938749,-972486,-6878215,467309,1043594
1647,-140642,-8388608,5202892,5938757,-972515,-6878127,467216,1043626
1648,-140996,-8388608,5202834,5938768,-972484,-6877946,467254,1044191
1649,-141351,-8388608,5202803,5938773,-972467,-6877774,467241,1044680
1650,-141679,-8388608,5202720,5938821,-972502,-6877470,467264,1045063
1651,-142012,-8388608,5202607,5938868,-972550,-6877312,467381,1045708
1652,-142115,-8388608,5202530,5938860,-972622,-6877147,467344,1045968
1653,-142156,-8388608,5202494,5938884,-972711,-6876911,467314,1046051
1654,-142156,-8388608,5202444,5938914,-972787,-6876851,467292,1046156
1655,-142126,-8388608,5202439,5938930,-972887,-6877016,467241,1046179
1656,-142131,-8388608,5202386,5938949,-973024,-6877247,467186,1046154
1657,-142036,-8388608,5202336,5938951,-973146,-6877136,467071,1045953
1658,-141814,-8388608,5202269,5938896,-973252,-6876401,466826,1045333
1659,-141564,-8388608,5202122,5938821,-973317,-6875939,466521,1044679
1660,-141266,-8388608,5201981,5938761,-973466,-6876143,466361,1044308
1661,-140911,-8388608,5201937,5938752,-973631,-6876657,466302,1043977
1662,-140722,-8388608,5201997,5938741,-973753,-6876971,466271,1043769
1663,-140635,-8388608,5202070,5938735,-973809,-6877160,466258,1043728
1664,-140740,-8388608,5202126,5938727,-973826,-6877299,466319,1043982
1665,-141080,-8388608,5202170,5938688,-973815,-6877197,466390,1044420
1666,-141414,-8388608,5202173,5938647,-973786,-6877156,466397,1044781
1667,-141720,-8388608,5202188,5938606,-973735,-6877206,466463,1045200
1668,-141954,-8388608,5202148,5938541,-973751,-6877099,466511,1045556
1669,-142111,-8388608,5202014,5938474,-973814,-6877259,466561,1045832
1670,-142152,-8388608,5201934,5938436,-973934,-6877999,466765,1046330
1671,-142160,-8388608,5202042,5938400,-974041,-6878588,466937,1046570
1672,-142157,-8388608,5202152,5938314,-974017,-6878757,466866,1046374
1673,-142090,-8388608,5202141,5938152,-973946,-6878672,466649,1045969
1674,-141962,-8388608,5202019,5937994,-973879,-6878802,466410,1045627
1675,-141742,-8388608,5201970,5937791,-973850,-6879183,466307,1045200
1676,-141444,-8388608,5201942,5937568,-973801,-6879533,466166,1044748
1677,-141089,-8388608,5201926,5937372,-973747,-6880026,466051,1044319
1678,-140713,-8388608,5201963,5937148,-973716,-6880507,465899,1043723
1679,-140489,-8388608,5202039,5936929,-973612,-6880801,465834,1043345
1680,-140449,-8388608,5202110,5936706,-973401,-6880929,465833,1043268
1681,-140674,-8388608,5202177,5936484,-973200,-6880961,465974,1043749
1682,-140989,-8388608,5202234,5936261,-972966,-6881033,466210,1044474
1683,-141261,-8388608,5202258,5936061,-972712,-6880983,466389,1045019
1684,-141609,-8388608,5202271,5935873,-972522,-6880832,466542,1045538
1685,-141844,-8388608,5202257,5935628,-972303,-6880661,466646,1045814
1686,-141903,-8388608,5202196,5935408,-972061,-6880529,466741,1045991
1687,-141888,-8388608,5202164,5935190,-971864,-6880472,466857,1046062
1688,-141879,-8388608,5202173,5934980,-971682,-6880384,466902,1046047
1689,-141779,-8388608,5202159,5934466,-971307,-6879761,467021,1045933
1690,-141568,-8388608,5202048,5934194,-971120,-6879637,467014,1045663
1691,-141322,-8388608,5201978,5933928,-970932,-6879811,466972,1045258
1692,-141052,-8388608,5201841,5933626,-970788,-6879739,466859,1044811
1693,-140697,-8388608,5201716,5933359,-970664,-6879619,466757,1044314
1694,-140347,-8388608,5201664,5933133,-970471,-6879271,466668,1043860
1695,-140259,-8388608,5201566,5932871,-970241,-6878842,466669,1043782
1696,-140351,-8388608,5201519,5932618,-970013,-6878544,466753,1043934
1697,-140697,-8388608,5201427,5932374,-969754,-6878137,466900,1044459
1698,-141888,-8388608,5202164,5935190,-971864,-6880472,466857,1046062
1699,-141879,-8388608,5202173,5934980,-971682,-6880384,466902,1046047
1700,-141779,-8388608,5202159,5934466,-971307,-6879761,467021,1045933
1701,-141568,-8388608,5202048,5934194,-971120,-6879637,467014,1045663
1702,-141322,-8388608,5201978,5933928,-970932,-6879811,466972,1045258
1703,-141052,-8388608,5201841,5933626,-970788,-6879739,466859,1044811
1704,-140697,-8388608,5201716,5933359,-970664,-6879619,466757,1044314
1705,-140347,-8388608,5201664,5933133,-970471,-6879271,466668,1043860
1706,-140259,-8388608,5201566,5932871,-970241,-6878842,466669,1043782
1707,-140351,-8388608,5201519,5932618,-970013,-6878544,466753,1043934
1708,-140697,-8388608,5201427,5932374,-969754,-6878137,466900,1044459
1709,-141024,-8388608,5201281,5932156,-969458,-6877794,467103,1044997
1710,-141324,-8388608,5201128,5931926,-969193,-6877488,467328,1045478
1711,-141660,-8388608,5200916,5931681,-968901,-6876998,467521,1046001
1712,-141873,-8388608,5200682,5931491,-968658,-6876655,467643,1046338
1713,-141938,-8388608,5200474,5931291,-968461,-6876514,467664,1046355
